,time,temp
0,0.003997087478637695,21.735867681356964
1,0.14191794395446777,21.743378164580744
2,0.26584768295288086,21.744451090756613
3,0.39177560806274414,21.747669869286383
4,0.5197160243988037,21.731575976662224
5,0.6446311473846436,21.74337816457857
6,0.7705609798431396,21.748742795458615
7,0.8969690799713135,21.76590961431749
8,1.023895263671875,21.769128392860345
9,1.1508228778839111,21.7884410641633
10,1.277763843536377,21.80346203078758
11,1.4026930332183838,21.821701776035525
12,1.5306084156036377,21.853889561943973
13,1.6575524806976318,21.87534808599942
14,1.7834627628326416,21.90753587227066
15,1.9107396602630615,21.941869511200508
16,2.0366861820220947,21.968692666793608
17,2.1625967025756836,22.015901420994943
18,2.2869999408721924,22.04701628198523
19,2.4138834476470947,22.092079184466705
20,2.5408289432525635,22.126412824741884
21,2.667240619659424,22.18756962211169
22,2.795142889022827,22.235851304810765
23,2.923102378845215,22.26911201984656
24,3.050016164779663,22.335633450636333
25,3.1749439239501953,22.3817692822322
26,3.301872730255127,22.436488524943403
27,3.4278712272644043,22.490134841958582
28,3.5545554161071777,22.546999938676493
29,3.6814746856689453,22.610302594337938
30,3.807586908340454,22.663948913378817
31,3.9350123405456543,22.728324497052483
32,4.061922550201416,22.79377300805563
33,4.188053369522095,22.842054697096014
34,4.313973426818848,22.91179491551037
35,4.439899444580078,22.96973294392182
36,4.565828084945679,23.034108531920822
37,4.692755937576294,23.083463150006086
38,4.819804906845093,23.1553492251432
39,4.945752859115601,23.21543310971785
40,5.0716612339019775,23.274444068562214
41,5.198603391647339,23.343111367111824
42,5.325531721115112,23.389247208908973
43,5.451465845108032,23.462206215524162
44,5.578077793121338,23.513706691506133
45,5.7019944190979,23.585592773551976
46,5.82893443107605,23.63494739772662
47,5.954198360443115,23.68859372897111
48,6.081113338470459,23.756188107277726
49,6.218034505844116,23.811980293314686
50,6.3443803787231445,23.857043213332695
51,6.4713075160980225,23.922491740854795
52,6.598222017288208,23.966481735294458
53,6.725162982940674,24.014763437032165
54,6.851093530654907,24.083430747091647
55,6.979121208190918,24.119910256006957
56,7.104067325592041,24.184285860707536
57,7.230976581573486,24.21754659017816
58,7.357922077178955,24.26153658762415
59,7.484845399856567,24.311964146202733
60,7.610773086547852,24.352735364219335
61,7.735707998275757,24.41174633833905
62,7.862840414047241,24.43535072821416
63,7.989787578582764,24.47934072787298
64,8.11571455001831,24.51474731329762
65,8.242642164230347,24.55122682584905
66,8.368374586105347,24.589852192431195
67,8.495319843292236,24.61774829072729
68,8.622247219085693,24.656373657902293
69,8.748170137405396,24.675686341621436
70,8.873300790786743,24.71753048998428
71,9.000234365463257,24.736843173985008
72,9.12615704536438,24.75937463875478
73,9.251073598861694,24.792635372687727
74,9.378013134002686,24.807656349388868
75,9.503928661346436,24.83662537603321
76,9.62785816192627,24.853792206737563
77,9.751806020736694,24.87310489134902
78,9.879254579544067,24.883834160620143
79,10.006500720977783,24.911730260848778
80,10.134426593780518,24.91816782246817
81,10.261470079421997,24.937480507378705
82,10.388383150100708,24.949282703760428
83,10.513313055038452,24.952501484594265
84,10.640241146087646,24.97181416966525
85,10.765183210372925,24.97503295053677
86,10.893109560012817,24.98576222004923
87,11.02102279663086,24.993272708734434
88,11.147951364517212,24.9879080739573
89,11.273892879486084,24.9964914896035
90,11.400825023651123,24.99327270873279
91,11.527752876281738,25.002929051349838
92,11.653681755065918,24.995418562647416
93,11.7805917263031,24.992199781778343
94,11.905537605285645,25.007220759192208
95,12.031448125839233,24.990053927867002
96,12.157390356063843,24.988981000917484
97,12.284321546554565,24.979324658326675
98,12.410249710083008,24.979324658325037
99,12.536177635192871,24.967522461863872
100,12.664093732833862,24.957866119329605
101,12.789016008377075,24.94713684986957
102,12.915956735610962,24.93533465350503
103,13.041871070861816,24.932115872673656
104,13.168817520141602,24.9181678224739
105,13.295745134353638,24.911730260852046
106,13.421668529510498,24.89992806457504
107,13.548188209533691,24.88598001447666
108,13.675115585327148,24.881688306767714
109,13.80104374885559,24.858083914415484
110,13.928492784500122,24.85164635288922
111,14.055438041687012,24.833406595284355
112,14.181347846984863,24.819458545406334
113,14.308294296264648,24.80443756866446
114,14.435202360153198,24.78083317674763
115,14.561131238937378,24.776541469150363
116,14.68707275390625,24.745426589118562
117,14.814986228942871,24.7411348815465
118,14.939929008483887,24.71860341686856
119,15.064858675003052,24.710020001784564
120,15.189786672592163,24.683196829765972
121,15.315719604492188,24.67032170724789
122,15.442647218704224,24.658519511647338
123,15.569072961807251,24.62847755934964
124,15.696002006530762,24.620967071309625
125,15.823942422866821,24.591998046134155
126,15.9508695602417,24.583414631311005
127,16.07678532600403,24.57268536279299
128,16.20173215866089,24.549080972161434
129,16.32964015007019,24.536205850054323
130,16.454920291900635,24.505090971790477
131,16.58125329017639,24.507236825453088
132,16.70773983001709,24.475049020569507
133,16.83167052268982,24.46217389868645
134,16.958598136901855,24.44500706956672
135,17.08352041244507,24.434277801399354
136,17.21096134185791,24.4181838992094
137,17.335904836654663,24.402089997064444
138,17.46281933784485,24.38599609498453
139,17.588746547698975,24.37204804656632
140,17.7156925201416,24.361318778582053
141,17.842172861099243,24.340933169490032
142,17.97011399269104,24.323766340850334
143,18.09682607650757,24.318401706915896
144,18.222766637802124,24.293724390901193
145,18.34968328475952,24.290505610561816
146,18.47660779953003,24.270120001803598
147,18.602537631988525,24.26475536793395
148,18.729464054107666,24.246515612830674
149,18.855411529541016,24.231494638097896
150,18.98132061958313,24.230421711332756
151,19.107261896133423,24.20789024934132
152,19.234176635742188,24.20681732258256
153,19.35910677909851,24.187504640967884
154,19.48604679107666,24.183212933953556
155,19.61296772956848,24.176775373446407
156,19.73890733718872,24.15960854545999
157,19.865912914276123,24.154243911725132
158,19.990859746932983,24.139222937313537
159,20.11777091026306,24.153170984979116
160,20.24469757080078,24.129566596646335
161,20.370625972747803,24.11454562231983
162,20.496562957763672,24.109180988649392
163,20.62248134613037,24.105962208445536
164,20.74942183494568,24.103816354974978
165,20.87488889694214,24.09201416092623
166,21.001821994781494,24.097378794582372
167,21.12773060798645,24.090941234196116
168,21.25467276573181,24.081284893638557
169,21.381587743759155,24.084503673824145
170,21.506516695022583,24.071628553097675
171,21.63344383239746,24.076993186726824
172,21.7603702545166,24.065190992751113
173,21.884535312652588,24.076993186733965
174,22.011746883392334,24.06626391947567
175,22.137669324874878,24.064118066028136
176,22.265584468841553,24.06411806602734
177,22.39152503013611,24.054461725533272
178,22.516449451446533,24.066263919476466
179,22.644381046295166,24.053388798808708
180,22.770309925079346,24.059826359147344
181,22.89622402191162,24.058753432414854
182,23.022760152816772,24.059826359136242
183,23.149707555770874,24.065190992752697
184,23.27554154396057,24.057680505697427
185,23.401450395584106,24.065190992758247
186,23.52839708328247,24.059826359137034
187,23.655320644378662,24.067336846199435
188,23.781679153442383,24.068409772923204
189,23.907320022583008,24.06089928585921
190,24.034234285354614,24.078066113453765
191,24.160181045532227,24.067336846199435
192,24.287091732025146,24.083430747091647
193,24.414705753326416,24.086649527278823
194,24.540647745132446,24.08450367381938
195,24.666563272476196,24.088795380736666
196,24.793996334075928,24.084503673820173
197,24.919063568115234,24.099524648043396
198,25.044974088668823,24.097378794579193
199,25.170915126800537,24.104889281706683
200,25.297878980636597,24.110253915377914
201,25.423802137374878,24.1091809886478
202,25.54873275756836,24.11561854905948
203,25.675644397735596,24.113472695583358
204,25.8025860786438,24.130639523385188
205,25.92914366722107,24.118837329264128
206,26.055155754089355,24.13385830361051
207,26.182083129882812,24.140295864057965
208,26.309009790420532,24.13815001056991
209,26.43495225906372,24.15102513149823
210,26.561866998672485,24.14566049776974
211,26.68779492378235,24.159608545463968
212,26.8130362033844,24.1596085454592
213,26.939977169036865,24.162827325701222
214,27.064891576766968,24.171410739695624
215,27.191819190979004,24.17033781294165
216,27.318760633468628,24.184285860718692
217,27.44468927383423,24.18106708045436
218,27.57034182548523,24.19501512824972
219,27.697275161743164,24.19608805500609
220,27.824214696884155,24.195015128254504
221,27.949937343597412,24.1993068352776
222,28.07686758041382,24.203598542307866
223,28.202775716781616,24.21540073665664
224,28.329701900482178,24.21003610285565
225,28.455629348754883,24.22505707752379
226,28.582098245620728,24.22505707751581
227,28.70904541015625,24.21969244370286
228,28.834972858428955,24.233640491632183
229,28.96290397644043,24.234713418395728
230,29.088809967041016,24.244369759295598
231,29.21575140953064,24.250807319911214
232,29.34268355369568,24.24329683252566
233,29.467668533325195,24.263682441161617
234,29.593578100204468,24.249734393141278
235,29.719520330429077,24.255099026993353
236,29.845434427261353,24.251880246678752
237,29.97070074081421,24.26904707502807
238,30.09862780570984,24.264755367932352
239,30.224554777145386,24.273338782125382
240,30.351483821868896,24.27763048924109
241,30.47940969467163,24.27226585535385
242,30.60471510887146,24.282995123113928
243,30.731972455978394,24.28084926955728
244,30.85891318321228,24.286213903447713
245,30.984827995300293,24.292651464127268
246,31.110770225524902,24.287286830228037
247,31.236684560775757,24.298016098023293
248,31.362632513046265,24.293724390900394
249,31.48944115638733,24.305526585498374
250,31.615686178207397,24.300161951587146
251,31.7426278591156,24.30123487837147
252,31.869556188583374,24.307672439069428
253,31.99547290802002,24.298016098026494
254,32.1224639415741,24.314109999775386
255,32.24838161468506,24.303380731936123
256,32.37530064582825,24.31518292656692
257,32.50224232673645,24.32162048727848
258,32.628174781799316,24.305526585498374
259,32.75410294532776,24.318401706918294
260,32.881030321121216,24.305526585501575
261,33.00793981552124,24.318401706915896
262,33.13388705253601,24.31303707298866
263,33.259809732437134,24.322693414066006
264,33.38605880737305,24.316255853343236
265,33.5129873752594,24.313037072994263
266,33.63992786407471,24.32054756049255
267,33.764862298965454,24.313037072995062
268,33.89178967475891,24.317328780130772
269,34.01869797706604,24.318401706915896
270,34.14562726020813,24.307672439067026
271,34.27156853675842,24.319474633705024
272,34.39850115776062,24.31303707298866
273,34.524502754211426,24.319474633701823
274,34.651397943496704,24.315182926559714
275,34.77832508087158,24.310891219424807
276,34.90325474739075,24.31089121942081
277,35.030163526535034,24.308745365849752
278,35.15610957145691,24.32054756048935
279,35.28203344345093,24.309818292636475
280,35.407947301864624,24.315182926562912
281,35.535874366760254,24.309818292633278
282,35.65980362892151,24.313037072987058
283,35.78473258018494,24.304453658717247
284,35.911365032196045,24.309818292646085
285,36.03627395629883,24.307672439070224
286,36.163203716278076,24.30445365871725
287,36.288146018981934,24.305526585500775
288,36.41306161880493,24.295870244461042
289,36.53998684883118,24.302307805163
290,36.666916370391846,24.293724390901993
291,36.793861389160156,24.305526585499173
292,36.918784856796265,24.29372439091319
293,37.045706272125244,24.292651464123267
294,37.172646045684814,24.293724390901996
295,37.29755520820618,24.29479731768152
296,37.423484802246094,24.2980160980281
297,37.549412965774536,24.28621390345091
298,37.675354957580566,24.295870244461845
299,37.802281856536865,24.287286830228837
300,37.92848300933838,24.295870244461042
301,38.05328822135925,24.285140976668984
302,38.18021559715271,24.28835975700437
303,38.30815601348877,24.287286830227238
304,38.434085845947266,24.282995123113935
305,38.56132793426514,24.290505610564214
306,38.687275648117065,24.275484635675642
307,38.81318688392639,24.28084926955888
308,38.940131425857544,24.28084926955808
309,39.06604027748108,24.274411708900114
310,39.19197058677673,24.279776342785752
311,39.316911458969116,24.2701200018012
312,39.44384407997131,24.28084926955808
313,39.569767236709595,24.264755367949128
314,39.69568371772766,24.26690122148181
315,39.8216290473938,24.25939073407229
316,39.948004722595215,24.26260951438689
317,40.07493352890015,24.273338782127784
318,40.19987964630127,24.265828294712676
319,40.32550096511841,24.271192928584718
320,40.45161986351013,24.257244880530028
321,40.577542304992676,24.265828294711874
322,40.70347595214844,24.254026100222617
323,40.83038640022278,24.259390734078682
324,40.95633244514465,24.258317807299964
325,41.082242250442505,24.260463660843023
326,41.20916986465454,24.265828294708683
327,41.335110902786255,24.256171953758493
328,41.462026596069336,24.261536587614557
329,41.58716058731079,24.24973439314767
330,41.71283483505249,24.262609514391684
331,41.838435649871826,24.25080731991601
332,41.965898513793945,24.255099026986162
333,42.09182834625244,24.259390734072298
334,42.217768907547,24.262609514390885
335,42.3437020778656,24.26368244116002
336,42.468862771987915,24.248661466367352
337,42.595791816711426,24.259390734072298
338,42.72273635864258,24.24973439313968
339,42.848647594451904,24.25509902699016
340,42.97458863258362,24.245442686061537
341,43.10150122642517,24.24866146637534
342,43.22744917869568,24.249734393136492
343,43.353357791900635,24.239005125457904
344,43.48028612136841,24.251880246676357
345,43.607232332229614,24.24222390575892
346,43.73314166069031,24.249734393139683
347,43.858070850372314,24.246515612829874
348,43.98473620414734,24.25188024667556
349,44.111645221710205,24.246515612837864
350,44.236592054367065,24.241150978996174
351,44.363500356674194,24.248661466368148
352,44.48844385147095,24.241150979003358
353,44.61437797546387,24.252953173445494
354,44.74130392074585,24.24115097899298
355,44.86821246147156,24.24651561282988
356,44.994558334350586,24.249734393139683
357,45.12048625946045,24.243296832530454
358,45.247414112091064,24.257244880533225
359,45.373356342315674,24.241150978991385
360,45.49829077720642,24.25509902699575
361,45.62519884109497,24.240078052223847
362,45.750141620635986,24.251880246677157
363,45.8760552406311,24.24329683252726
364,46.00200319290161,24.251880246678752
365,46.12791204452515,24.24651561283467
366,46.254454612731934,24.247588539599015
367,46.380712032318115,24.24973439314368
368,46.5066397190094,24.24222390576212
369,46.632569313049316,24.250807319911214
370,46.759509325027466,24.241150978996174
371,46.88636493682861,24.252953173447093
372,47.01227879524231,24.247588539599015
373,47.13920760154724,24.24544268606633
374,47.265825033187866,24.246515612830674
375,47.39291524887085,24.242223905758923
376,47.51884412765503,24.256171953756898
377,47.64577555656433,24.245442686061537
378,47.77157020568848,24.251880246676357
379,47.89844012260437,24.25295317345348
380,48.0243706703186,24.248661466367352
381,48.15029692649841,24.25080731990642
382,48.276890993118286,24.248661466368148
383,48.40183353424072,24.259390734070692
384,48.52675271034241,24.254026100225015
385,48.651352882385254,24.256171953758493
386,48.77826166152954,24.24329683252646
387,48.90444016456604,24.251880246675558
388,49.03236198425293,24.250807319905626
389,49.15727663040161,24.25295317344869
390,49.284204721450806,24.260463660843023
391,49.41014647483826,24.25617195376169
392,49.536062240600586,24.26475536793315
393,49.663132429122925,24.248661466368947
394,49.79007387161255,24.25509902698696
395,49.915000438690186,24.25080731990643
396,50.0417754650116,24.261536587615357
397,50.16768455505371,24.254026100221022
398,50.294098138809204,24.25724488052843
399,50.421027421951294,24.2593907340715
400,50.54797029495239,24.252953173451886
401,50.68487524986267,24.25724488052843
402,50.808818340301514,24.26690122148181
403,50.93580722808838,24.256171953756898
404,51.062753200531006,24.25402610022102
405,51.18966245651245,24.262609514391684
406,51.315608501434326,24.25509902698696
407,51.44208765029907,24.26904707502967
408,51.568015575408936,24.261536587614557
409,51.693925619125366,24.26904707502647
410,51.820852518081665,24.261536587615357
411,51.94608759880066,24.260463660842227
412,52.07302737236023,24.265828294723065
413,52.1999409198761,24.252953173447093
414,52.32586979866028,24.2701200018028
415,52.45174241065979,24.259390734073897
416,52.57865643501282,24.26368244116242
417,52.70358467102051,24.25939073407229
418,52.83053135871887,24.25939073407389
419,52.95622444152832,24.270120001805996
420,53.082165479660034,24.264755367932352
421,53.20809364318848,24.272265855357055
422,53.33302283287048,24.259390734074692
423,53.457951068878174,24.27548463567724
424,53.58386516571045,24.25724488052763
425,53.70981240272522,24.272265855351456
426,53.83673667907715,24.25831780730236
427,53.96165084838867,24.273338782124586
428,54.0875780582428,24.260463660843023
429,54.215518951416016,24.2701200018004
430,54.34144830703735,24.273338782134978
431,54.4683620929718,24.26046366084462
432,54.595293045043945,24.272265855349854
433,54.722230195999146,24.262609514390086
434,54.84845185279846,24.26797414825414
435,54.97520971298218,24.273338782130182
436,55.101118326187134,24.26475536793555
437,55.22504806518555,24.263682441162416
438,55.352989196777344,24.26797414825334
439,55.477903604507446,24.265828294705486
440,55.60531711578369,24.26475536793315
441,55.731245279312134,24.272265855353055
442,55.857173442840576,24.259390734075488
443,55.984100103378296,24.265828294705486
444,56.11102771759033,24.269047075033665
445,56.236172914505005,24.264755367939546
446,56.3631010055542,24.27226585535465
447,56.490042209625244,24.26260951438769
448,56.615970611572266,24.271192928578323
449,56.74190354347229,24.262609514390086
450,56.86882662773132,24.26797414825654
451,56.99483871459961,24.26475536793555
452,57.121766328811646,24.258317807299964
453,57.248694896698,24.272265855351456
454,57.37453484535217,24.263682441164818
455,57.501452922821045,24.26797414825414
456,57.62839126586914,24.2701200018004
457,57.753300189971924,24.264755367932352
458,57.880229234695435,24.26904707502647
459,58.00717306137085,24.26904707502967
460,58.13310194015503,24.26904707502647
461,58.26002478599548,24.265828294705486
462,58.38695216178894,24.266901221481007
463,58.513888359069824,24.265828294706285
464,58.63981580734253,24.262609514390086
465,58.76572346687317,24.26797414826213
466,58.89165163040161,24.26582829471267
467,59.017597675323486,24.26904707503446
468,59.144511222839355,24.262609514390086
469,59.270448446273804,24.2701200018028
470,59.39638161659241,24.26260951438689
471,59.52315378189087,24.26153658761935
472,59.64908170700073,24.261536587615357
473,59.774945974349976,24.25831780730396
474,59.90187335014343,24.26475536794034
475,60.02778935432434,24.25080731990802
476,60.155736684799194,24.26368244116162
477,60.28165912628174,24.26368244116002
478,60.40757489204407,24.259390734072298
479,60.5335156917572,24.26797414825414
480,60.65944576263428,24.256171953756898
481,60.78435969352722,24.274411708900114
482,60.9112868309021,24.26260951438849
483,61.03821349143982,24.266901221479408
484,61.16415023803711,24.262609514388487
485,61.289703607559204,24.26904707502807
486,61.41663146018982,24.2701200018012
487,61.544158697128296,24.258317807312743
488,61.67010569572449,24.271192928576724
