,time,temp
0,0.003997087478637695,21.742305238404157
1,0.12792658805847168,21.745524016930293
2,0.25585317611694336,21.750888647813973
3,0.3807835578918457,21.746596943106162
4,0.5067236423492432,21.756253278706374
5,0.6336514949798584,21.753034500169335
6,0.7585663795471191,21.762690835778272
7,0.884472131729126,21.770201319044208
8,1.0104002952575684,21.804534956977992
9,1.1363284587860107,21.819555923653237
10,1.2632570266723633,21.854962488141666
11,1.3881914615631104,21.892514905316656
12,1.5151143074035645,21.936504880103133
13,1.6390416622161865,21.988005338909463
14,1.7654051780700684,22.036287019557935
15,1.8923468589782715,22.10388137328131
16,2.019261121749878,22.158600612733007
17,2.1452016830444336,22.240143009965415
18,2.272195339202881,22.314174924474276
19,2.399113416671753,22.383915134871533
20,2.526050090789795,22.48262435753918
21,2.6529603004455566,22.566312613192775
22,2.7794387340545654,22.66287598699213
23,2.906367063522339,22.763731068462466
24,3.0322954654693604,22.854929814262164
25,3.1572413444519043,22.9568578264327
26,3.2841498851776123,23.05342120849888
27,3.4110960960388184,23.171443122715345
28,3.537005662918091,23.270152362438097
29,3.664290428161621,23.39032013546896
30,3.790774345397949,23.501904499036783
31,3.9177050590515137,23.60168667267892
32,4.04463529586792,23.72185445467544
33,4.170547246932983,23.825928339937054
34,4.296473503112793,23.939658567900906
35,4.422400712966919,24.05124294536593
36,4.549329042434692,24.153170984979916
37,4.675289869308472,24.27548463567724
38,4.800152063369751,24.37204804657274
39,4.926095247268677,24.47934072787298
40,5.052009344100952,24.57804999704674
41,5.190929412841797,24.715384636214907
42,5.350839376449585,24.80551049557395
43,5.47878360748291,24.90314684537452
44,5.604706764221191,24.994345635694618
45,5.729635953903198,25.082325647049686
46,5.856563568115234,25.169232733236925
47,5.983492136001587,25.242191769956065
48,6.108420133590698,25.323734224267366
49,6.236352205276489,25.40098497192662
50,6.361275672912598,25.467506450230207
51,6.488266468048096,25.53080914831877
52,6.615175247192383,25.58767428471526
53,6.741103887557983,25.64453942189696
54,6.868044376373291,25.689602361357956
55,6.9939587116241455,25.745394572792616
56,7.1199119091033936,25.78616580471103
57,7.2468342781066895,25.826937037034003
58,7.374155044555664,25.873072905673972
59,7.500102519989014,25.894531449411136
60,7.6270246505737305,25.931010974011027
61,7.752940893173218,25.939594391619476
62,7.87888240814209,25.96534464452789
63,8.00581431388855,25.982511479905874
64,8.133735656738281,25.981438552678412
65,8.259660959243774,26.00075124254865
66,8.38578486442566,25.99538660646481
67,8.512730360031128,25.994313679247533
68,8.638655662536621,25.98680318874358
69,8.766653299331665,25.971782207781487
70,8.894561767578125,25.96963635335966
71,9.021153450012207,25.94925073643502
72,9.148001670837402,25.92350048362491
73,9.27394700050354,25.90955243009787
74,9.400874614715576,25.870927051309728
75,9.5277841091156,25.852687289239405
76,9.651726245880127,25.81835361966569
77,9.778494119644165,25.788311659030555
78,9.904440641403198,25.74432164564381
79,10.03135061264038,25.704623341285775
80,10.154289722442627,25.67136260008453
81,10.282207489013672,25.62308087947171
82,10.406150102615356,25.57587208653818
83,10.53407883644104,25.52222573157179
84,10.659005403518677,25.48038157519169
85,10.78581714630127,25.42888107560248
86,10.911750316619873,25.383818138986886
87,11.038672924041748,25.33017178651439
88,11.165550231933594,25.271160799594167
89,11.290496587753296,25.22180615662533
90,11.418423652648926,25.158503463237732
91,11.543333530426025,25.111294675572854
92,11.67026138305664,25.046919056888918
93,11.798188924789429,24.99327270873279
94,11.922120332717896,24.940699288206808
95,12.0480477809906,24.87203196442321
96,12.173987865447998,24.836625376034842
97,12.300204753875732,24.76044756565125
98,12.427147150039673,24.72074927064281
99,12.554075002670288,24.656373657901483
100,12.680004835128784,24.608091948986765
101,12.805917263031006,24.551226825850655
102,12.930845975875854,24.500799264455587
103,13.057787418365479,24.450371703657634
104,13.183701038360596,24.398871216640913
105,13.309629201889038,24.358099998197034
106,13.434280395507812,24.3065995122827
107,13.561070442199707,24.26797414825254
108,13.683987855911255,24.218619516940105
109,13.808915615081787,24.18214000720117
110,13.933844327926636,24.130639523388368
111,14.05877423286438,24.108108061909746
112,14.183701753616333,24.0555346522499
113,14.310629844665527,24.034076117878435
114,14.435557842254639,23.989013196038936
115,14.561486959457397,23.966481735294458
116,14.686415195465088,23.933221007741142
117,14.812830448150635,23.911762473970807
118,14.93975830078125,23.889231013626695
119,15.0664222240448,23.86026199334831
120,15.193364143371582,23.850605653299883
121,15.320278406143188,23.832365899932878
122,15.447217464447021,23.81198029331469
123,15.573134899139404,23.796959320078884
124,15.70007586479187,23.78408420020356
125,15.827002763748169,23.774427860322586
126,15.951931953430176,23.769063227070642
127,16.077845811843872,23.77335493367298
128,16.204787969589233,23.75726103391949
129,16.33070206642151,23.762625667163594
130,16.456629514694214,23.76584444711162
131,16.582560777664185,23.770136153719456
132,16.70848774909973,23.78301127355003
133,16.834137439727783,23.77228200701945
134,16.96106505393982,23.795886393423004
135,17.086979627609253,23.793740540107304
136,17.213907718658447,23.82270955994347
137,17.339854955673218,23.829147119932998
138,17.465763568878174,23.83987638660425
139,17.592692613601685,23.864553700043412
140,17.71962022781372,23.87957467351368
141,17.84554672241211,23.906397840543416
142,17.971489191055298,23.921418814157956
143,18.098402500152588,23.95038783483463
144,18.222214937210083,23.962190028502324
145,18.34912943840027,23.99545075627616
146,18.476070165634155,24.02334685073194
147,18.600986003875732,24.041586604895645
148,18.727912187576294,24.080211966910028
149,18.854853868484497,24.0909412341977
150,18.979782342910767,24.128493669909066
151,19.105716705322266,24.153170984983895
152,19.232625007629395,24.183212933955943
153,19.359552145004272,24.21969244370445
154,19.48749828338623,24.24115097899138
155,19.61141037940979,24.279776342782547
156,19.737355947494507,24.28621390345091
157,19.863272428512573,24.331276828372644
158,19.988199710845947,24.351662437419783
159,20.11312985420227,24.387069021788093
160,20.240070343017578,24.414965118769004
161,20.366983890533447,24.437496581846993
162,20.491926908493042,24.471830240100157
163,20.618854522705078,24.493288776644103
164,20.743782997131348,24.527622435337776
165,20.8698410987854,24.536205850055936
166,20.995787382125854,24.579122923901853
167,21.121715545654297,24.584487558160465
168,21.24862504005432,24.62740463248643
169,21.37357211112976,24.640279754874044
170,21.500487804412842,24.669248780372538
171,21.625423431396484,24.68856146415087
172,21.75133752822876,24.7046553673664
173,21.87926483154297,24.726113905082897
174,22.00520658493042,24.73469732019776
175,22.13313388824463,24.76581220014092
176,22.25906205177307,24.78083317675333
177,22.38399648666382,24.78941659197798
178,22.51192283630371,24.81194805702847
179,22.63683271408081,24.81194805702684
180,22.763761520385742,24.834479522202
181,22.890454530715942,24.834479522202
182,23.016382932662964,24.85164635289085
183,23.142298460006714,24.85808391442365
184,23.267226219177246,24.860229768261384
185,23.394153594970703,24.877396599056322
186,23.520081996917725,24.869886110576495
187,23.645012855529785,24.877396599054688
188,23.77193570137024,24.88061537983946
189,23.89785075187683,24.8816883067718
190,24.02477741241455,24.87846952598213
191,24.151724100112915,24.876323672129704
192,24.277647495269775,24.888125868333987
193,24.404579877853394,24.868813183648243
194,24.5304913520813,24.879542452912023
195,24.668411254882812,24.866667329803974
196,24.795909881591797,24.868813183648243
197,24.92185139656067,24.85271927981013
198,25.049778699874878,24.84842757213139
199,25.17571258544922,24.84306293753827
200,25.30299735069275,24.823750253058158
201,25.42993927001953,24.82589610688367
202,25.555853128433228,24.81087513011898
203,25.68279480934143,24.808729276297544
204,25.8077232837677,24.78297903055115
205,25.934894561767578,24.777614396045205
206,26.06181764602661,24.77332268844631
207,26.187745332717896,24.74328073533456
208,26.315738201141357,24.738989027767385
209,26.442684412002563,24.732551466417014
210,26.56861162185669,24.708947074900284
211,26.693541526794434,24.70036365984875
212,26.818928241729736,24.681050976007146
213,26.945860385894775,24.67139463414677
214,27.072771072387695,24.658519511644094
215,27.199710845947266,24.646717316075136
216,27.325624704360962,24.626331705626466
217,27.451571941375732,24.610237802702656
218,27.579494953155518,24.597362680412157
219,27.70442247390747,24.580195850748886
220,27.831356048583984,24.567320728546495
221,27.957266092300415,24.544789264788633
222,28.08321189880371,24.548008045320856
223,28.210121154785156,24.527622435337765
224,28.337062120437622,24.505090971790477
225,28.462990283966064,24.49650755713117
226,28.588923692703247,24.47290316691898
227,28.71584677696228,24.47612194739477
228,28.841760396957397,24.458955118219514
229,28.966707944869995,24.446079996383933
230,29.093616724014282,24.429986094145754
231,29.219564199447632,24.41174633833905
232,29.346487283706665,24.416038045578986
233,29.473419427871704,24.38921487539522
234,29.599329948425293,24.39136072900475
235,29.72527551651001,24.37312097336587
236,29.851158380508423,24.367756339368928
237,29.977091789245605,24.3645375589815
238,30.10300087928772,24.351662437419783
239,30.229928255081177,24.349516583847137
240,30.355858325958252,24.331276828372644
241,30.48280358314514,24.33449560874083
242,30.60972571372986,24.325912194426188
243,30.735929250717163,24.31089121942081
244,30.86187481880188,24.317328780133973
245,30.987797737121582,24.305526585500775
246,31.114712715148926,24.315182926560514
247,31.239654541015625,24.302307805150996
248,31.365569829940796,24.302307805150196
249,31.492512941360474,24.295870244463448
250,31.620423555374146,24.29479731768152
251,31.746351957321167,24.305526585499173
252,31.87329888343811,24.29479731768792
253,31.99820876121521,24.30123487837147
254,32.12214016914368,24.30123487837147
255,32.24706792831421,24.304453658715648
256,32.3740131855011,24.29908902480522
257,32.49992394447327,24.31089121942081
258,32.62585091590881,24.314109999772988
259,32.75079894065857,24.318401706915097
260,32.87672138214111,24.321620487276082
261,33.0036346912384,24.318401706917495
262,33.1305627822876,24.332349755167378
263,33.25650978088379,24.32376634085513
264,33.383421897888184,24.335568535530765
265,33.51036524772644,24.34844365704118
266,33.634289503097534,24.351662437420586
267,33.76121687889099,24.35380829101488
268,33.88755202293396,24.360245851785717
269,34.01346755027771,24.367756339369727
270,34.139394760131836,24.37312097336507
271,34.266324281692505,24.388141948590857
272,34.3915581703186,24.37955853417279
273,34.518489837646484,24.39457950942105
274,34.64539885520935,24.407454631103928
275,34.771328926086426,24.40638170429876
276,34.898900508880615,24.425694386885727
277,35.02582025527954,24.425694386885727
278,35.15174865722656,24.432131947768134
279,35.27868866920471,24.435350728213358
280,35.404603004455566,24.441788289111845
281,35.53153085708618,24.45680926457864
282,35.658477544784546,24.467538532797484
283,35.78538632392883,24.467538532799097
284,35.911447286605835,24.48470536200816
285,36.0373797416687,24.479340727874593
286,36.16429090499878,24.495434630300267
287,36.290525913238525,24.49758048396449
288,36.4174542427063,24.512601459622108
289,36.5443811416626,24.525476581663067
290,36.66938543319702,24.513674386457843
291,36.79632782936096,24.528695362175927
292,36.923239946365356,24.535132923219397
293,37.04917001724243,24.548008045317626
294,37.176109790802,24.54478926478782
295,37.302042961120605,24.55015389900524
296,37.42795252799988,24.563029021164017
297,37.55457377433777,24.557664386922372
298,37.682496070861816,24.573758289646484
299,37.80868744850159,24.57053950909488
300,37.93560171127319,24.57375828964729
301,38.062548875808716,24.58448755815723
302,38.18847131729126,24.57804999704674
303,38.313387870788574,24.593070972989267
304,38.44031500816345,24.582341704454272
305,38.566256523132324,24.593070972993306
306,38.693169355392456,24.59199804614304
307,38.81992840766907,24.589852192425532
308,38.94587540626526,24.60272731469582
309,39.07178592681885,24.591998046134155
310,39.198726654052734,24.60272731469582
311,39.32464075088501,24.593070972990073
312,39.45056867599487,24.597362680413774
313,39.57851505279541,24.602727314697436
314,39.70542335510254,24.596289753562704
315,39.83236503601074,24.60058146098316
316,39.95943546295166,24.603800241551745
317,40.08534622192383,24.587706338718537
318,40.21327209472656,24.59843560726727
319,40.3366916179657,24.587706338723386
320,40.46263790130615,24.596289753556228
321,40.5905647277832,24.586633411864227
322,40.71649217605591,24.59628975355947
323,40.84341526031494,24.594143899847616
324,40.97033905982971,24.579122923899433
325,41.09625864028931,24.58877926557284
326,41.223204135894775,24.569466582254304
327,41.34911346435547,24.575904143343784
328,41.4750554561615,24.57161243594433
329,41.600988149642944,24.56839365539596
330,41.7279155254364,24.57053950909407
331,41.853559494018555,24.557664386920756
332,41.98046851158142,24.568393655395152
333,42.107396841049194,24.55229975269527
334,42.23332500457764,24.55337267953908
335,42.35926604270935,24.54908097216466
336,42.48219585418701,24.543716337944822
337,42.60910940170288,24.539424630577674
338,42.736037254333496,24.526549508497194
339,42.86334443092346,24.537278776898933
340,42.98929142951965,24.5254765816671
341,43.11620211601257,24.52118487431205
342,43.24312925338745,24.52118487431608
343,43.36907505989075,24.504018044956354
344,43.49598503112793,24.512601459622108
345,43.62092685699463,24.49865341079942
346,43.74585700035095,24.506163898621377
347,43.870784521102905,24.488997069331774
348,43.995699882507324,24.49865341079539
349,44.12041902542114,24.48577828884631
350,44.24735474586487,24.49436170347259
351,44.37429404258728,24.48041365469905
352,44.5009024143219,24.47719487422406
353,44.627843141555786,24.48470536200816
354,44.753772020339966,24.468611459629187
355,44.8796911239624,24.47290316691898
356,45.006627559661865,24.467538532799097
357,45.132543325424194,24.46861145962275
358,45.25948405265808,24.469684386448016
359,45.38541221618652,24.45680926457623
360,45.51314997673035,24.4632468255077
361,45.639081954956055,24.448225850019178
362,45.76602482795715,24.45359048411492
363,45.89094829559326,24.45359048411492
364,46.018096923828125,24.451444630475656
365,46.145005226135254,24.45788219139747
366,46.27295136451721,24.443934142745473
367,46.39787983894348,24.454663410935357
368,46.52179217338562,24.44393414276478
369,46.64972710609436,24.448225850018375
370,46.77366018295288,24.43856950866099
371,46.900575399398804,24.446079996384743
372,47.02750253677368,24.44715292319955
373,47.15244936943054,24.43964243547741
374,47.279359579086304,24.445007069564305
375,47.40330147743225,24.43856950866099
376,47.527230739593506,24.45788219139747
377,47.653164863586426,24.446079996381528
378,47.78007459640503,24.446079996384743
379,47.90561819076538,24.436423655029774
380,48.03354477882385,24.443934142745473
381,48.1604585647583,24.452517557300922
382,48.28638672828674,24.445007069572352
383,48.41331696510315,24.45037170365602
384,48.540241718292236,24.44500706956591
385,48.66639471054077,24.451444630475656
386,48.79332375526428,24.45680926457623
387,48.919269323349,24.44715292319955
388,49.044193744659424,24.46431975233296
389,49.17112135887146,24.449298776836397
390,49.29903554916382,24.464319752331352
391,49.42498230934143,24.461100971861992
392,49.548893213272095,24.467538532797484
393,49.674962282180786,24.464319752328127
394,49.80090355873108,24.462173898684846
395,49.92590117454529,24.46861145962275
396,50.05181550979614,24.46539267915098
397,50.17775750160217,24.478267801049327
398,50.30467200279236,24.467538532797484
399,50.43060541152954,24.483632435193368
400,50.55754256248474,24.47826780104611
401,50.68347382545471,24.47934072787298
402,50.80938529968262,24.484705362009773
403,50.93431305885315,24.4825595083528
404,51.061240911483765,24.48792414249362
405,51.18616843223572,24.482559508360048
406,51.31309771537781,24.496507557130368
407,51.43902611732483,24.48685121566594
408,51.56495237350464,24.501872191287294
409,51.691879749298096,24.500799264455587
410,51.81880784034729,24.48792414249443
411,51.944735527038574,24.50509097178564
412,52.07168245315552,24.49650755713117
413,52.19860482215881,24.510455605953045
414,52.32451915740967,24.509382679126986
415,52.449448108673096,24.509382679119728
416,52.57639479637146,24.512601459622108
417,52.70131850242615,24.50616389861816
418,52.82853078842163,24.52118487431124
419,52.95544123649597,24.512601459622108
420,53.08136820793152,24.516893166964255
421,53.208314180374146,24.520111947472273
422,53.33522439002991,24.513674386458653
423,53.46115159988403,24.521184874314468
424,53.58709955215454,24.509382679123757
425,53.71202254295349,24.52118487431124
426,53.839067459106445,24.516893166963442
427,53.9649817943573,24.52762243533616
428,54.09192752838135,24.521184874309633
429,54.21685171127319,24.526549508498
430,54.34278106689453,24.5265495084988
431,54.46971249580383,24.51903902063734
432,54.59563612937927,24.52762243533616
433,54.721564054489136,24.525476581660648
434,54.847684383392334,24.528695362175927
435,54.97362685203552,24.52118487431124
436,55.099555015563965,24.52225780114617
437,55.22568416595459,24.529768289013276
438,55.35261249542236,24.516893166964255
439,55.47952628135681,24.53084121585547
440,55.60445427894592,24.52118487431124
441,55.731385946273804,24.528695362179157
442,55.85732913017273,24.52440365482088
443,55.98324155807495,24.51689316696506
444,56.11018490791321,24.527622435340994
445,56.237112283706665,24.514747313299225
446,56.36419200897217,24.52225780114698
447,56.491116523742676,24.526549508497194
448,56.61904716491699,24.512601459626943
449,56.74595594406128,24.51903902064702
450,56.8705313205719,24.514747313292776
451,56.99746036529541,24.52225780114698
452,57.12520694732666,24.521184874309633
453,57.25115442276001,24.51260145962291
454,57.378076791763306,24.52440365483378
455,57.50400996208191,24.50938267911892
456,57.630939960479736,24.520111947475502
457,57.75655174255371,24.51474731329439
458,57.88341426849365,24.510455605957887
459,58.00935459136963,24.507236825459536
460,58.13527059555054,24.50616389861816
461,58.261197090148926,24.508309752285605
462,58.38612747192383,24.486851215664327
463,58.51405334472656,24.504018044953938
464,58.63898158073425,24.498653410792976
465,58.76491165161133,24.50294511812303
466,58.888995885849,24.492215849811586
467,59.01492428779602,24.49972633762549
468,59.14183759689331,24.496507557133587
469,59.268765926361084,24.49328877664088
470,59.39469361305237,24.49865341079942
471,59.52063584327698,24.48792414249603
472,59.646552324295044,24.497580483962874
473,59.77147889137268,24.49221584980998
474,59.898406744003296,24.49758048396449
475,60.02435350418091,24.487924142492815
476,60.14926314353943,24.487924142494425
477,60.276116371154785,24.487924142500866
478,60.401043176651,24.482559508353607
479,60.526973247528076,24.49328877663927
480,60.65130281448364,24.48470536200816
481,60.77821207046509,24.488997069323716
482,60.90315341949463,24.47719487422004
483,61.02906942367554,24.484705362009773
484,61.15499758720398,24.486851215664327
485,61.281938314437866,24.483632435185314
486,61.40786576271057,24.48470536200816
487,61.53279948234558,24.484705362015408
488,61.65971565246582,24.48792414249603
489,61.78563642501831,24.47719487422487
490,61.9107460975647,24.4911429229831
