,time,temp
0,0.004997968673706055,19.656537198659105
1,0.12611746788024902,19.6543913472114
2,0.25304508209228516,19.666193530185115
3,0.37897372245788574,19.65224549576569
4,0.5059952735900879,19.656537198659105
5,0.631934404373169,19.668339381636155
6,0.7588503360748291,19.657610124387624
7,0.8857982158660889,19.675849861727794
8,1.01072359085083,19.666193530185115
9,1.137650966644287,19.68336034182944
10,1.2635951042175293,19.694089599135328
11,1.3885431289672852,19.69194374767228
12,1.5134556293487549,19.70160007926233
13,1.6394007205963135,19.71769396528693
14,1.7663280963897705,19.7327149256211
15,1.8912723064422607,19.734860777101517
16,2.016190767288208,19.763829772169757
17,2.1411333084106445,19.76812147515468
18,2.26596999168396,19.790652915893496
19,2.3909010887145996,19.798163396161655
20,2.5159029960632324,19.82391361430777
21,2.6397969722747803,19.83464287190819
22,2.7637462615966797,19.86253894177367
23,2.890658140182495,19.871122347911932
24,3.0175867080688477,19.90331012106747
25,3.14378023147583,19.920476933502837
26,3.270707845687866,19.954810558543464
27,3.397317409515381,19.973050296939093
28,3.5252459049224854,19.989144183812922
29,3.649177074432373,20.028842438321792
30,3.7747280597686768,20.043863399567712
31,3.9006569385528564,20.086780431941218
32,4.0275914669036865,20.098582615907947
33,4.1525044441223145,20.13720794544236
34,4.278451681137085,20.151155981181162
35,4.4053754806518555,20.191927162787874
36,4.531463146209717,20.216604457079107
37,4.657392978668213,20.247719306573263
38,4.7843358516693115,20.288490488957493
39,4.9112708568573,20.302438525114077
40,5.03819465637207,20.345355559678563
41,5.1646728515625,20.367887002971056
42,5.2906036376953125,20.402220631044713
43,5.416263580322266,20.437627185233897
44,5.543198347091675,20.459085703051983
45,5.6700568199157715,20.510586146177147
46,5.79399299621582,20.528825886578844
47,5.918905973434448,20.576034626754115
48,6.0428361892700195,20.599638997007297
49,6.169732093811035,20.639337256332993
50,6.2956156730651855,20.66294162687909
51,6.420994520187378,20.713369146168294
52,6.548829078674316,20.741265220888344
53,6.674779653549194,20.768088369808186
54,6.800703048706055,20.808859556441067
55,6.926637887954712,20.83460977975113
56,7.051568508148193,20.88074559685447
57,7.178497314453125,20.89898533861661
58,7.304408073425293,20.951558712315506
59,7.431352615356445,20.975163084362766
60,7.5562684535980225,21.022371828799713
61,7.682212829589844,21.047049127208606
62,7.808148622512817,21.08674739012905
63,7.934072017669678,21.124299801296008
64,8.060988664627075,21.145758322094416
65,8.187936067581177,21.19296706817987
66,8.314847707748413,21.210133885052453
67,8.440593004226685,21.250905075367324
68,8.565505027770996,21.279874079220583
69,8.690453290939331,21.319572344042687
70,8.817382097244263,21.3496142743964
71,8.943616151809692,21.37643742665084
72,9.071545124053955,21.42364617498741
73,9.195974111557007,21.438667140466112
74,9.32089114189148,21.48587588940897
75,9.446874618530273,21.50518855956602
76,9.573107242584229,21.54703267850849
77,9.700010776519775,21.56527242277509
78,9.824939727783203,21.606043616097097
79,9.951869010925293,21.63823140054173
80,10.077799320220947,21.6564711451558
81,10.204748392105103,21.696169413090324
82,10.330658435821533,21.71226330559326
83,10.455591201782227,21.75839913106028
84,10.581537246704102,21.768055466679392
85,10.706450462341309,21.81419129268952
86,10.833397150039673,21.829212259401203
87,10.957533836364746,21.86354589775684
88,11.082476377487183,21.881785643236714
89,11.206394672393799,21.91290050333731
90,11.333924770355225,21.927921470354942
91,11.458855628967285,21.970838519243102
92,11.58479928970337,21.98800533890653
93,11.710734367370605,22.008390937339556
94,11.837658882141113,22.041651650761658
95,11.963588953018188,22.048089208225385
96,12.090505361557007,22.092079184463756
97,12.21638011932373,22.097443815741048
98,12.339298009872437,22.136069161114577
99,12.466631412506104,22.139287939910144
100,12.593559741973877,22.170402801716534
101,12.7184898853302,22.182204990729613
102,12.845419883728027,22.20688229513183
103,12.971158504486084,22.232632525946446
104,13.09707498550415,22.24014300996245
105,13.220021486282349,22.26267446207864
106,13.345999956130981,22.278768356516608
107,13.471889734268188,22.304518587729255
108,13.597818613052368,22.306664440337368
109,13.72474455833435,22.342071008505986
110,13.849660634994507,22.344216861131933
111,13.974590539932251,22.374258797985934
112,14.101538181304932,22.37211294534585
113,14.227468252182007,22.39893610340204
114,14.353393793106079,22.40322780870605
115,14.479011297225952,22.41717585097019
116,14.604940414428711,22.43970730394603
117,14.730869054794312,22.442926082953136
118,14.856799602508545,22.46974924142634
119,14.982728958129883,22.4590199780133
120,15.108659029006958,22.48477021023001
121,15.234746932983398,22.483697283883846
122,15.36067008972168,22.503009958134985
123,15.486590147018433,22.5115933689402
124,15.610541105270386,22.522322632466945
125,15.737496137619019,22.52446848517499
126,15.863274812698364,22.54056238052764
127,15.99020528793335,22.551291644118802
128,16.11711621284485,22.542708233237928
129,16.242027759552002,22.567385539557662
130,16.368976354599,22.554510423199225
131,16.493906497955322,22.579187729584966
132,16.620330333709717,22.569531392285185
133,16.746293544769287,22.574896024113396
134,16.873205184936523,22.586698214157956
135,17.000133991241455,22.584552361420673
136,17.127079248428345,22.595281625119114
137,17.253042936325073,22.5877711405281
138,17.378997802734375,22.598500404232556
139,17.504268169403076,22.600646256975843
140,17.628199577331543,22.60708381521549
141,17.75411581993103,22.598500404233302
142,17.88104510307312,22.59420869874747
143,18.005976915359497,22.602792109721385
144,18.132221698760986,22.598500404233302
145,18.258498668670654,22.60601088884234
146,18.385423183441162,22.595281625117615
147,18.51248550415039,22.60279210972289
148,18.63839888572693,22.592062846005675
149,18.763328552246094,22.592062846005675
150,18.89025855064392,22.5985004042318
151,19.015201091766357,22.590989919637035
152,19.14211654663086,22.59635455148926
153,19.26804780960083,22.580260655952856
154,19.393990755081177,22.585625287788563
155,19.519907474517822,22.577041876846927
156,19.645576000213623,22.584552361422926
157,19.771617650985718,22.564166760469742
158,19.898528575897217,22.56738553955616
159,20.02488398551941,22.562020907736212
160,20.150813817977905,22.549145791399518
161,20.27574396133423,22.554510423199975
162,20.40201735496521,22.530906043307354
163,20.528944969177246,22.546999938677992
164,20.65530776977539,22.530906043310353
165,20.782235860824585,22.523395558821342
166,20.907153129577637,22.51803092705235
167,21.03408122062683,22.500864105438918
168,21.16106152534485,22.505155810835543
169,21.28299903869629,22.487988989265503
170,21.4091694355011,22.495499473693886
171,21.536093711853027,22.47082216776279
172,21.66201615333557,22.479405578511905
173,21.78670573234558,22.460092904353488
174,21.913634777069092,22.459019978017785
175,22.039565086364746,22.447217788295944
176,22.165778636932373,22.435415598609193
177,22.29265260696411,22.431123893276844
178,22.418582916259766,22.413957071983234
179,22.544512271881104,22.415029998311468
180,22.66844415664673,22.39357147177799
181,22.793374061584473,22.393571471778735
182,22.92032241821289,22.373185871665893
183,23.046452283859253,22.381769282229214
184,23.17238211631775,22.35387319795798
185,23.299311876296997,22.347435640072707
186,23.423243284225464,22.336706376947447
187,23.5491726398468,22.323831261236393
188,23.675922632217407,22.324904187541556
189,23.801852226257324,22.30237273512264
190,23.927159547805786,22.306664440337368
191,24.054070949554443,22.284132988009038
192,24.180018663406372,22.28520591430604
193,24.30592966079712,22.25945568319876
194,24.433491706848145,22.249799346569485
195,24.559428930282593,22.250872272861297
196,24.685354232788086,22.23155959965908
197,24.811288595199585,22.232632525950883
198,24.938433170318604,22.21010107397394
199,25.064380407333374,22.203663516288973
200,25.189292669296265,22.184350843281408
201,25.316251277923584,22.176840359355662
202,25.442161798477173,22.17040280171506
203,25.568105459213257,22.15538183392194
204,25.695022583007812,22.158600612733007
205,25.82095241546631,22.13177745605824
206,25.947741746902466,22.129631603530818
207,26.07348918914795,22.112464783348265
208,26.200434923171997,22.10173552076789
209,26.327359199523926,22.100662594510077
210,26.45227551460266,22.07598529067091
211,26.57816219329834,22.079204069436983
212,26.703073263168335,22.05023506071599
213,26.83001685142517,22.058818470689438
214,26.955942392349243,22.035214093309694
215,27.081876754760742,22.04057872451856
216,27.208791971206665,22.022338978423402
217,27.33501696586609,22.010536789811788
218,27.460947513580322,22.0073180111038
219,27.58687734603882,21.98156778152578
220,27.711811542510986,21.990151191370693
221,27.838764905929565,21.965473888109834
222,27.96566653251648,21.967619740565194
223,28.092389822006226,21.946161216086324
224,28.21831965446472,21.937577806322025
225,28.343295335769653,21.937577806322025
226,28.467240571975708,21.920410986842466
227,28.5911762714386,21.91397342955108
228,28.71610713005066,21.908608798482966
229,28.841018438339233,21.894660757736148
230,28.966948747634888,21.882858569443172
231,29.091878414154053,21.87320223359015
232,29.218480587005615,21.864618823958185
233,29.343430280685425,21.860327119151336
234,29.46969962120056,21.84101444755259
235,29.59775424003601,21.84745200474317
236,29.72240686416626,21.827066407004345
237,29.849340438842773,21.83135811178422
238,29.9762921333313,21.82062884984511
239,30.102218627929688,21.802389104600074
240,30.227152824401855,21.801316178413302
241,30.35307788848877,21.7884410641633
242,30.479716300964355,21.794878621281022
243,30.606063842773438,21.771274245222976
244,30.731993436813354,21.774493023769466
245,30.858137607574463,21.759472057239776
246,30.984067678451538,21.755180352526878
247,31.110998392105103,21.75518035252324
248,31.2373788356781,21.734794755184733
249,31.363738298416138,21.73694060753428
250,31.49066925048828,21.72513841963101
251,31.61825156211853,21.721919641117218
252,31.74418044090271,21.724065493458777
253,31.87110996246338,21.703679896251685
254,31.998170852661133,21.710117453253872
255,32.12434363365173,21.696169413090324
256,32.25026869773865,21.697242339255304
257,32.376270055770874,21.69080478226907
258,32.501914739608765,21.6768567421628
259,32.62782669067383,21.68436722529226
260,32.754754304885864,21.665054554411117
261,32.88068509101868,21.673637963685266
262,33.00661611557007,21.65539821900748
263,33.13254523277283,21.667200406727304
264,33.258474349975586,21.65003358822535
265,33.3844039440155,21.648960662071243
266,33.51133346557617,21.65217944053502
267,33.63826274871826,21.636085548237123
268,33.76419281959534,21.645741883610363
269,33.891122341156006,21.62857506518368
270,34.01705193519592,21.62964799133634
271,34.14298152923584,21.62964799133345
272,34.26991081237793,21.619991655994205
273,34.39484143257141,21.627502139034632
274,34.521772146224976,21.609262394529054
275,34.6467010974884,21.628575065184403
276,34.77363109588623,21.60926239452978
277,34.90055990219116,21.61462702526055
278,35.02748942375183,21.6146270252591
279,35.15341901779175,21.600678985377165
280,35.2793493270874,21.6156999514067
281,35.40627861022949,21.60282483766297
282,35.53220820426941,21.60711654224036
283,35.65814137458801,21.595314354660125
284,35.78406834602356,21.594241428519748
285,35.908000230789185,21.599606059231732
286,36.033931255340576,21.59102265009357
287,36.16085863113403,21.604970689954555
288,36.28578996658325,21.59102265009429
289,36.412718057632446,21.60282483766297
290,36.53964853286743,21.589949723952472
291,36.66557741165161,21.599606059232457
292,36.79250741004944,21.59638728080916
293,36.91943621635437,21.584585093250595
294,37.04536581039429,21.59853313308847
295,37.172295570373535,21.58458509325204
296,37.299225091934204,21.593168502376482
297,37.42515563964844,21.593168502376482
298,37.55108642578125,21.588876797812095
299,37.67801332473755,21.601751911519706
300,37.80394434928894,21.587803871672445
301,37.92987322807312,21.602824837667306
302,38.05780291557312,21.59638728080267
303,38.18373250961304,21.593168502377207
304,38.30866503715515,21.59853313308847
305,38.43559217453003,21.591022650095013
306,38.561522483825684,21.60497068995022
307,38.68745231628418,21.59209557623539
308,38.813382387161255,21.611408246819916
309,38.940311670303345,21.60175191151826
310,39.0672402381897,21.59853313308847
311,39.19317936897278,21.61248117296607
312,39.32009983062744,21.595314354660843
313,39.446030139923096,21.61140824682281
314,39.57395815849304,21.61033532067521
315,39.6988890171051,21.61355409911222
316,39.825817823410034,21.61569995140525
317,39.95174813270569,21.61462702526055
318,40.07667875289917,21.623210434439173
319,40.20260953903198,21.613554099112946
320,40.329537868499756,21.63072091748322
321,40.45546793937683,21.624283360587494
322,40.58239674568176,21.618918729850947
323,40.70832848548889,21.63393969593542
324,40.83525609970093,21.628575065186574
325,40.962185859680176,21.641450178998266
326,41.08913445472717,21.632866769785647
327,41.21504497528076,21.63715847438834
328,41.33997702598572,21.646814809763026
329,41.466904401779175,21.64037725284488
330,41.59283518791199,21.654325292844682
331,41.71976351737976,21.64252310514948
332,41.84369468688965,21.658616997469085
333,41.97062373161316,21.654325292844682
334,42.09755516052246,21.656471145158697
335,42.22338056564331,21.660762849785993
336,42.35029745101929,21.65754407131208
337,42.47723889350891,21.67363796368454
338,42.6021568775177,21.665054554411117
339,42.7253212928772,21.684367225292263
340,42.85225057601929,21.670419185204835
341,42.97917985916138,21.684367225292988
342,43.104124307632446,21.67685674216208
343,43.23005247116089,21.68329429912946
344,43.3559832572937,21.688658929942743
345,43.4819130897522,21.689731856108445
346,43.607842683792114,21.698315265425357
347,43.73277282714844,21.689731856105542
348,43.859702825546265,21.701534043917384
349,43.9866509437561,21.700461117753132
350,44.11234474182129,21.7079716009232
351,44.239275217056274,21.713336231761858
352,44.36520791053772,21.705825748585266
353,44.491135597229004,21.725138419633186
354,44.61807703971863,21.71119037942175
355,44.745012283325195,21.72299256728872
356,44.87192416191101,21.7219196411194
357,44.99785351753235,21.724065493458053
358,45.12479567527771,21.735867681355515
359,45.25172424316406,21.724065493463133
360,45.377654790878296,21.744451090755156
361,45.50457048416138,21.738013533706514
362,45.63051915168762,21.738013533705058
363,45.75543022155762,21.750888647813245
364,45.882373094558716,21.74552401693102
365,46.00928854942322,21.760544983418548
366,46.13559818267822,21.750888647813973
367,46.261510610580444,21.759472057239776
368,46.38943886756897,21.766982540497715
369,46.51336884498596,21.75839913106246
370,46.64031648635864,21.76805546668012
371,46.76424193382263,21.760544983421454
372,46.88815999031067,21.77449302377092
373,47.014089584350586,21.770201319041295
374,47.139020919799805,21.7884410641633
375,47.262951374053955,21.780930580870454
376,47.38789939880371,21.783076433238904
377,47.512367248535156,21.784149359422038
378,47.63827896118164,21.79809739984425
379,47.76422166824341,21.785222285607354
380,47.88914227485657,21.80024325221998
381,48.01306939125061,21.791659842721437
382,48.13799977302551,21.800243252221435
383,48.263320207595825,21.795951547468523
384,48.38824939727783,21.80989958792495
385,48.51418614387512,21.797024473656027
386,48.639110803604126,21.813118366500564
387,48.766053438186646,21.806680809357356
388,48.890970945358276,21.815264218882117
389,49.01591992378235,21.80989958792495
390,49.14182996749878,21.821701776036253
391,49.26875948905945,21.81311836649765
392,49.39369010925293,21.829212259395373
393,49.5203754901886,21.82706640700726
394,49.647289752960205,21.819555923652516
395,49.773232221603394,21.832431037984104
396,49.900166511535645,21.818482997461373
397,50.026097774505615,21.84316029994799
398,50.15300679206848,21.832431037984104
399,50.27858233451843,21.833503964177435
400,50.40383005142212,21.837795668960943
401,50.530327796936035,21.83135811178422
402,50.65725374221802,21.851743709541275
403,50.7841637134552,21.83672274276397
404,50.910093784332275,21.850670783342107
405,51.03602337837219,21.843160299948718
406,51.163073778152466,21.847452004742443
407,51.28900408744812,21.85710834054364
408,51.41695189476013,21.845306152344854
409,51.54348301887512,21.85818126674572
410,51.66941428184509,21.84852493094233
411,51.79632782936096,21.856035414343022
412,51.92325830459595,21.86354589775538
413,52.0501868724823,21.848524930944517
414,52.177117347717285,21.86569175016611
415,52.303064584732056,21.860327119148412
416,52.42967200279236,21.859254192948526
417,52.55758190155029,21.872129307387343
418,52.683513164520264,21.856035414345207
419,52.810460567474365,21.869983454976612
420,52.936222076416016,21.861400045350493
421,53.06216549873352,21.868910528771615
422,53.18908357620239,21.87427515979442
423,53.31501269340515,21.859254192946338
424,53.44194054603577,21.87749393841088
425,53.568888902664185,21.869983454975884
426,53.695799827575684,21.867837602568073
427,53.821730613708496,21.881785643236714
428,53.94868016242981,21.865691750161727
429,54.0755877494812,21.878566864617337
430,54.20052790641785,21.868910528771615
431,54.327547788619995,21.877493938411607
432,54.454474210739136,21.878566864617337
433,54.58040452003479,21.872129307386615
434,54.70733428001404,21.88715027427339
435,54.83426332473755,21.873202233590877
436,54.95990753173828,21.886077348065474
437,55.08681869506836,21.87749393841745
438,55.2138888835907,21.869983454975884
439,55.34079909324646,21.88285856944464
440,55.46672868728638,21.872129307386615
441,55.59367227554321,21.881785643236714
442,55.72060704231262,21.883931495651826
443,55.845717906951904,21.876421012208066
444,55.97264885902405,21.885004421859744
445,56.09969639778137,21.868910528772343
446,56.22662019729614,21.885004421857555
447,56.35154914855957,21.876421012208795
448,56.478294134140015,21.878566864618797
449,56.60424256324768,21.88393149565037
450,56.73015356063843,21.87320223359015
451,56.857083797454834,21.889296126691434
452,56.9830265045166,21.87427515979442
453,57.10994267463684,21.883931495653286
454,57.23591732978821,21.872129307385148
455,57.36280083656311,21.871056381180146
456,57.4892680644989,21.880712717030253
457,57.616212606430054,21.865691750163187
458,57.742135524749756,21.883931495651826
459,57.86805582046509,21.865691750161727
460,57.9939866065979,21.881785643236714
461,58.11993408203125,21.871056381183074
462,58.24584674835205,21.877493938412336
463,58.373518228530884,21.880712717030985
464,58.49946141242981,21.866764676365996
465,58.62637710571289,21.880712717030253
466,58.75332045555115,21.87427515979442
467,58.87924671173096,21.869983454976612
468,59.006165742874146,21.87534808599942
469,59.133095264434814,21.860327119148412
470,59.25904440879822,21.876421012206606
471,59.384968519210815,21.860327119152796
472,59.511897563934326,21.87212930738953
473,59.63881468772888,21.872129307386615
474,59.76469588279724,21.861400045350493
475,59.89162516593933,21.877493938412336
476,60.017573833465576,21.859254192947066
477,60.14449882507324,21.868910528772343
478,60.27043390274048,21.869983454975884
479,60.397035121917725,21.85818126674572
480,60.52321219444275,21.8678376025688
481,60.6511595249176,21.856035414343022
482,60.777071475982666,21.868910528771615
483,60.90401315689087,21.865691750161727
484,61.029948711395264,21.85388956194178
485,61.15587854385376,21.86354589775684
486,61.281789779663086,21.85174370954492
487,61.40973210334778,21.86569175016611
488,61.53566265106201,21.851743709540546
489,61.66204261779785,21.85388956194105
