,time,temp
0,0.004996776580810547,21.714409157934096
1,0.13092494010925293,21.724065493458053
2,0.2548532485961914,21.721919641117942
3,0.3827815055847168,21.729430124320665
4,0.5087096691131592,21.717627936436273
5,0.6356546878814697,21.720846714945708
6,0.7605838775634766,21.72406549346023
7,0.8865118026733398,21.729430124319936
8,1.013420820236206,21.740159386053154
9,1.138350248336792,21.742305238405613
10,1.2652783393859863,21.749815721635933
11,1.3922185897827148,21.754107426345925
12,1.5191311836242676,21.7755659499526
13,1.64406156539917,21.779857654690957
14,1.7699732780456543,21.798097399852985
15,1.8969202041625977,21.82492055461623
16,2.0238423347473145,21.82492055462061
17,2.1507575511932373,21.85603541434448
18,2.276698350906372,21.872129307387343
19,2.401613235473633,21.90002538878818
20,2.5295398235321045,21.921483913062087
21,2.656477689743042,21.942942437423063
22,2.7824149131774902,21.976203150389576
23,2.907338857650757,21.9933699700662
24,3.0342676639556885,22.026630683383296
25,3.1601994037628174,22.04165165076313
26,3.2871086597442627,22.08349577443364
27,3.413036346435547,22.11031893083263
28,3.539964199066162,22.13177745606046
29,3.6658942699432373,22.175767433100088
30,3.7928197383880615,22.20044473747349
31,3.9197473526000977,22.232632525946446
32,4.046679735183716,22.272330798733858
33,4.1726038455963135,22.290570545804407
34,4.300531387329102,22.335633450645254
35,4.425475120544434,22.367821240073127
36,4.552386999130249,22.405373661360297
37,4.6783287525177,22.435415598609193
38,4.804243803024292,22.47404094679006
39,4.9311747550964355,22.51266629529086
40,5.058112859725952,22.542708233239427
41,5.1830408573150635,22.57918772958196
42,5.30997371673584,22.609229667962538
43,5.4355432987213135,22.655365502289087
44,5.56148362159729,22.678969882823303
45,5.6874001026153564,22.718668159443407
46,5.81432580947876,22.764803994871027
47,5.941267967224121,22.792700081634205
48,6.067195653915405,22.836690064954826
49,6.194111347198486,22.86673200502738
50,6.320037603378296,22.904284430398093
51,6.446966886520386,22.938618076721987
52,6.573906898498535,22.96222245871977
53,6.700834274291992,23.006212443676887
54,6.826762676239014,23.03196267897534
55,6.9516966342926025,23.07487973812941
56,7.0776262283325195,23.10492167977889
57,7.204551935195923,23.148911666126924
58,7.330461740493774,23.17788068176155
59,7.458407402038574,23.20148506501186
60,7.583337068557739,23.242256272731456
61,7.710263729095459,23.269079435907454
62,7.836191654205322,23.309850644242278
63,7.963101863861084,23.332382101641063
64,8.088030815124512,23.371007457443348
65,8.214854001998901,23.39997647451736
66,8.340762376785278,23.42250793237079
67,8.465938568115234,23.463279142109737
68,8.592847347259521,23.48688352685656
69,8.718777418136597,23.515852544679618
70,8.846197366714478,23.54052985630885
71,8.972139358520508,23.572717654292358
72,9.098069667816162,23.59846789284745
73,9.22499942779541,23.617780571866692
74,9.351909160614014,23.647822517164897
75,9.477159023284912,23.663916416516656
76,9.603288650512695,23.703614701838323
77,9.73021650314331,23.719708601408364
78,9.857162714004517,23.74116713424208
79,9.984089851379395,23.772282007021023
80,10.109999895095825,23.77979249358708
81,10.23615574836731,23.813053219978432
82,10.362100839614868,23.827001266606302
83,10.489029169082642,23.85918906667513
84,10.614938020706177,23.87742882016022
85,10.740880250930786,23.889231013625118
86,10.866799354553223,23.91498125403845
87,10.993735551834106,23.92571052092165
88,11.119668245315552,23.951460761529106
89,11.246578216552734,23.963262955198385
90,11.371520280838013,23.98579441592546
91,11.49844765663147,24.004034169933185
92,11.625375747680664,24.007252950063275
93,11.751291751861572,24.035149044595073
94,11.878219366073608,24.044805385051884
95,12.00516414642334,24.061972212581395
96,12.131075620651245,24.068409772923992
97,12.259001970291138,24.081284893639353
98,12.384942293167114,24.10167050151872
99,12.510857582092285,24.104889281709863
100,12.637784004211426,24.124201962952846
101,12.763712882995605,24.127420743170212
102,12.889660120010376,24.144587571025315
103,13.016582250595093,24.151025131491863
104,13.142510414123535,24.153170984987074
105,13.269437789916992,24.185358787460718
106,13.395352602005005,24.17462951993924
107,13.520280838012695,24.186431714213107
108,13.64721131324768,24.189650494475043
109,13.772152185440063,24.206817322578573
110,13.899079084396362,24.21218195637557
111,14.024997472763062,24.20896317609689
112,14.148922681808472,24.214327809896282
113,14.273852586746216,24.218619516941704
114,14.39979863166809,24.23042171133435
115,14.522727966308594,24.236859271925223
116,14.647652387619019,24.231494638099495
117,14.77156949043274,24.240078052228636
118,14.897345066070557,24.234713418393333
119,15.023270606994629,24.249734393137288
120,15.14919924736023,24.242223905759722
121,15.275146245956421,24.249734393138084
122,15.402073860168457,24.256171953764888
123,15.528997421264648,24.244369759294
124,15.654911279678345,24.2669012214882
125,15.781857967376709,24.25402610021623
126,15.907785177230835,24.252953173447093
127,16.03470778465271,24.251880246678752
128,16.16064214706421,24.245442686061537
129,16.286546230316162,24.254026100216226
130,16.413475036621094,24.244369759296397
131,16.53941512107849,24.25188024667556
132,16.66634750366211,24.251880246677157
133,16.791271448135376,24.246515612829874
134,16.916187524795532,24.249734393137288
135,17.042809009552002,24.24115097900096
136,17.169738054275513,24.233640491628986
137,17.295679330825806,24.2390051254603
138,17.42331576347351,24.240078052223843
139,17.549262762069702,24.232567564862247
140,17.676191329956055,24.226130004276968
141,17.802101612091064,24.23578634516167
142,17.928041696548462,24.223984150753854
143,18.055955171585083,24.227202931046897
144,18.182883262634277,24.21540073665824
145,18.30893111228943,24.21325488313832
146,18.435839414596558,24.220765370464807
147,18.56276822090149,24.19930683527521
148,18.68769669532776,24.206817322583355
149,18.814624547958374,24.192869274739373
150,18.94156503677368,24.192869274740968
151,19.065495014190674,24.186431714212308
152,19.192408561706543,24.1789212269456
153,19.3193359375,24.184285860706737
154,19.444443702697754,24.182140007201966
155,19.57035756111145,24.179994153702772
156,19.69730520248413,24.158535618710793
157,19.82321333885193,24.164973179202015
158,19.949161291122437,24.154243911725132
159,20.076083421707153,24.140295864055577
160,20.20222282409668,24.14887927799983
161,20.32841920852661,24.13600415709538
162,20.453341960906982,24.137077083830256
163,20.58027958869934,24.118837329263336
164,20.706196784973145,24.126347816428172
165,20.83418917655945,24.127420743171008
166,20.961116790771484,24.11025391537871
167,21.08806037902832,24.111326842112003
168,21.21297335624695,24.098451721312482
169,21.339900732040405,24.1027434282401
170,21.46683096885681,24.09201416092861
171,21.592756271362305,24.080211966908443
172,21.7196843624115,24.08879538073826
173,21.84468412399292,24.074847333294368
174,21.97061252593994,24.076993186729204
175,22.09752106666565,24.066263919476466
176,22.224467754364014,24.06304513930596
177,22.348548889160156,24.052315872086524
178,22.47548794746399,24.048024165206527
179,22.601417541503906,24.050170018655646
180,22.727344751358032,24.03622197131249
181,22.85226011276245,24.043732458332872
182,22.978201389312744,24.020128070593138
183,23.105116367340088,24.03300319116102
184,23.2310631275177,24.01690929045513
185,23.356989860534668,24.01476343703375
186,23.48290181159973,24.013690510321872
187,23.609833478927612,24.004034169934766
188,23.735771417617798,24.005107096641897
189,23.861706256866455,23.993304902863493
190,23.98762607574463,23.99974246310151
191,24.11453938484192,23.989013196040517
192,24.24046754837036,23.98579441592546
193,24.365396976470947,23.9847214892215
194,24.491328239440918,23.980429782411186
195,24.615253686904907,23.969700515395278
196,24.742196321487427,23.970773442094497
197,24.868111848831177,23.966481735299205
198,24.9956533908844,23.95467954161807
199,25.12259316444397,23.963262955197596
200,25.248552560806274,23.95360661492122
201,25.375588417053223,23.95575246831571
202,25.50153350830078,23.958971248407043
203,25.628448009490967,23.942877347980392
204,25.755393266677856,23.948241981446465
205,25.881320476531982,23.938585641200902
206,26.008257627487183,23.935366861126152
207,26.13417625427246,23.935366861126152
208,26.260440826416016,23.926783447603498
209,26.386368989944458,23.930002227670354
210,26.51329731941223,23.91498125403214
211,26.64022421836853,23.9246375942248
212,26.766151905059814,23.921418814154798
213,26.893093585968018,23.912835400656608
214,27.019007921218872,23.922491740842954
215,27.143937587738037,23.90854369391816
216,27.26986527442932,23.907470767230002
217,27.396793842315674,23.90747076722842
218,27.52272129058838,23.91283540066134
219,27.649649143218994,23.90425198717814
220,27.775577306747437,23.8903039403046
221,27.90150547027588,23.905324913866295
222,28.0284321308136,23.892449793667517
223,28.15236210823059,23.894595647033587
224,28.278290033340454,23.88708516026378
225,28.405372381210327,23.895668573711497
226,28.532268524169922,23.884939306904805
227,28.658201932907104,23.890303940310908
228,28.783125162124634,23.89137686698646
229,28.908833265304565,23.887085160266142
230,29.034780740737915,23.89137686698803
231,29.161708116531372,23.88279345355292
232,29.288630962371826,23.887085160265357
233,29.414502143859863,23.873137113450152
234,29.540429830551147,23.88493930690402
235,29.66665267944336,23.883866380225317
236,29.792593717575073,23.872064186771453
237,29.919522523880005,23.8838663802269
238,30.04543685913086,23.870991260097483
239,30.17064905166626,23.880647600193953
240,30.297576665878296,23.872064186770668
241,30.42372179031372,23.875282966802033
242,30.55057120323181,23.87313711345646
243,30.677517652511597,23.868845406743237
244,30.803440809249878,23.883866380227687
245,30.928642988204956,23.86133492002386
246,31.05559015274048,23.874210040124126
247,31.181499242782593,23.870991260099842
248,31.308429956436157,23.87528296680046
249,31.435859203338623,23.874210040124126
250,31.561973571777344,23.864553700044198
251,31.687916040420532,23.876355893479158
252,31.814834594726562,23.869918333421936
253,31.94175934791565,23.875282966805184
254,32.067704916000366,23.876355893481517
255,32.194626808166504,23.870991260097483
256,32.32054114341736,23.87528296680125
257,32.44785737991333,23.868845406744814
258,32.57476449012756,23.877428820155494
259,32.70069479942322,23.878501746835767
260,32.826635122299194,23.870991260097483
261,32.952563762664795,23.87528296680361
262,33.07947754859924,23.870991260095117
263,33.20640420913696,23.87957467351525
264,33.33150815963745,23.869918333418788
265,33.45749235153198,23.877428820157064
266,33.584418535232544,23.884939306907174
267,33.710360050201416,23.872064186773816
268,33.83627700805664,23.88386638023399
269,33.96320295333862,23.876355893479158
270,34.09014868736267,23.877428820154705
271,34.216057777404785,23.879574673510525
272,34.34300422668457,23.878501746832615
273,34.46893382072449,23.88708516026378
274,34.594841718673706,23.880647600189224
275,34.72077131271362,23.895668573717806
276,34.84769868850708,23.875282966803614
277,34.97262692451477,23.887085160266142
278,35.09957265853882,23.882793453548988
279,35.223185777664185,23.88923101362433
280,35.34911370277405,23.88601223358508
281,35.476022243499756,23.883866380225317
282,35.601950883865356,23.89137686698961
283,35.72887873649597,23.88279345355214
284,35.8548059463501,23.8978144270752
285,35.98173499107361,23.879574673511318
286,36.10772252082825,23.89030394030697
287,36.23364996910095,23.89137686698882
288,36.359596490859985,23.888158086943267
289,36.48552465438843,23.897814427076774
290,36.61143517494202,23.882793453548988
291,36.737364292144775,23.898887353758628
292,36.86329126358032,23.888158086944053
293,36.98923206329346,23.89888735375784
294,37.11616086959839,23.893522720347793
295,37.2410888671875,23.8978144270752
296,37.36749744415283,23.895668573713863
297,37.49343943595886,23.899960280441267
298,37.619354248046875,23.90854369391816
299,37.746297121047974,23.899960280443633
300,37.87222361564636,23.90425198717498
301,37.99913787841797,23.908543693914215
302,38.126065731048584,23.899960280441267
303,38.251993894577026,23.911762473974754
304,38.37892127037048,23.897814427076774
305,38.50584888458252,23.911762473970022
306,38.63177728652954,23.90210613380891
307,38.75871825218201,23.909616620599223
308,38.88563275337219,23.91605418071872
309,39.010361433029175,23.904251987176558
310,39.1362886428833,23.91605418071636
311,39.263221979141235,23.902106133807337
312,39.38914656639099,23.914981254033716
313,39.51607346534729,23.91605418071636
314,39.641000747680664,23.908543693917373
315,39.76694297790527,23.91605418071872
316,39.89385676383972,23.908543693919736
317,40.01878762245178,23.92141881415874
318,40.14536166191101,23.913908327353447
319,40.26929330825806,23.918200034093466
320,40.395222663879395,23.90317906049392
321,40.51814937591553,23.918200034101357
322,40.645079374313354,23.911762473970022
323,40.77084159851074,23.92678344759876
324,40.89575815200806,23.9117624739716
325,41.022703409194946,23.91927296077847
326,41.149611949920654,23.924637594220073
327,41.27456068992615,23.91605418071872
328,41.39847207069397,23.921418814154794
329,41.52541184425354,23.922491740842958
330,41.65233492851257,23.92463759422165
331,41.77925372123718,23.91068954728896
332,41.9051947593689,23.927856374290077
333,42.031128883361816,23.92356466753112
334,42.15803861618042,23.922491740847693
335,42.28375434875488,23.91927296077847
336,42.40970158576965,23.91283540065897
337,42.537609577178955,23.93000222767035
338,42.663538694381714,23.92678344759876
339,42.790465116500854,23.924637594220858
340,42.91766142845154,23.92892930098061
341,43.04358959197998,23.9235646675327
342,43.1695191860199,23.932148081062465
343,43.29544687271118,23.92356466753112
344,43.42137575149536,23.9289293009814
345,43.548301696777344,23.92892930098061
346,43.67522978782654,23.92463759422323
347,43.80117678642273,23.931075154360876
348,43.92610049247742,23.924637594224013
349,44.05101656913757,23.934293934432468
350,44.176230669021606,23.92356466753112
351,44.302140951156616,23.93322100774194
352,44.42808675765991,23.924637594223228
353,44.55479907989502,23.93429393443563
354,44.68172597885132,23.934293934432468
355,44.808653593063354,23.92463759422165
356,44.9345817565918,23.935366861126152
357,45.06051206588745,23.922491740847693
358,45.1874566078186,23.934293934432468
359,45.31367635726929,23.931075154366404
360,45.43860721588135,23.932148081056933
361,45.5645477771759,23.932148081052986
362,45.689462184906006,23.9321480810522
363,45.81439208984375,23.931075154362457
364,45.94131922721863,23.931075154359295
365,46.067248582839966,23.930002227670354
366,46.19217586517334,23.92678344760192
367,46.3191032409668,23.931075154362457
368,46.44503331184387,23.92892930098061
369,46.56996011734009,23.93214808105062
370,46.69690227508545,23.933221007742723
371,46.82481598854065,23.926783447599554
372,46.949764013290405,23.94180442128196
373,47.076690435409546,23.92892930097903
374,47.20260047912598,23.933221007744304
375,47.330137968063354,23.927856374291657
376,47.45605206489563,23.92571052090981
377,47.58298087120056,23.937512714515897
378,47.70871138572693,23.926783447601917
379,47.8356409072876,23.93643978781668
380,47.962568044662476,23.93536686112457
381,48.08849382400513,23.93643978781747
382,48.214735984802246,23.932148081052986
383,48.34264874458313,23.931075154362457
384,48.468576192855835,23.9321480810522
385,48.59501600265503,23.92892930097903
386,48.72195768356323,23.92892930097903
387,48.84887194633484,23.93322100774194
388,48.97481846809387,23.927856374293235
389,49.100727558135986,23.93322100774194
390,49.22760629653931,23.92571052090981
391,49.353551626205444,23.935366861126152
392,49.47947978973389,23.930002227669558
393,49.60540747642517,23.919272960783204
394,49.73134994506836,23.936439787819843
395,49.858277559280396,23.922491740842954
396,49.9844913482666,23.938585641203268
397,50.11141848564148,23.924637594220858
398,50.23838424682617,23.930002227673505
399,50.36429715156555,23.938585641200902
400,50.48924517631531,23.92141881415874
401,50.61417365074158,23.9321480810522
402,50.7380850315094,23.92678344760034
403,50.86503052711487,23.934293934432468
404,50.99095869064331,23.925710520914546
405,51.114869832992554,23.933221007742723
406,51.2418110370636,23.92141881415874
407,51.36773872375488,23.93322100774194
408,51.49467206001282,23.932148081049828
409,51.62058091163635,23.92141881415874
410,51.760520935058594,23.92678344759876
411,51.88637161254883,23.930002227670354
412,52.013298988342285,23.937512714512742
413,52.13923645019531,23.92463759422007
414,52.265533685684204,23.93751271450879
415,52.39146304130554,23.921418814155583
416,52.5183892250061,23.932148081055352
417,52.64333248138428,23.92356466753428
418,52.77067184448242,23.9235646675327
419,52.89560294151306,23.924637594220858
420,53.02152895927429,23.92785637429324
421,53.14745831489563,23.934293934445098
422,53.274386405944824,23.923564667531906
423,53.40033173561096,23.93536686112457
424,53.52626013755798,23.92571052090902
425,53.65316891670227,23.927856374293235
426,53.779096841812134,23.92678344760034
427,53.90504431724548,23.92141881415401
428,54.03195405006409,23.930002227671924
429,54.15789985656738,23.922491740842954
430,54.2838089466095,23.933221007742723
431,54.41073703765869,23.92356466753112
432,54.53567957878113,23.927856374290077
433,54.66159391403198,23.921418814154794
434,54.78853511810303,23.928929300985345
435,54.915470361709595,23.932148081052986
436,55.041396617889404,23.91605418071636
437,55.16729521751404,23.9289293009814
438,55.294222354888916,23.926783447599547
439,55.41917109489441,23.92463759422323
440,55.54615616798401,23.922491740847693
441,55.67209720611572,23.91498125403214
442,55.79902625083923,23.93107515436009
443,55.925957441329956,23.91927296077847
444,56.05186867713928,23.92785637428929
445,56.17879581451416,23.925710520914546
446,56.304736375808716,23.918200034095044
447,56.43065094947815,23.933221007744304
448,56.55659866333008,23.9182000340911
449,56.6835253238678,23.92463759422165
450,56.811097621917725,23.92678344760034
451,56.937026023864746,23.92141881415874
452,57.0639533996582,23.92892930097824
453,57.189900636672974,23.91605418071635
454,57.317466497421265,23.926783447605864
455,57.444395303726196,23.925710520912173
456,57.56933927536011,23.922491740842954
457,57.69525122642517,23.919272960780052
458,57.8221971988678,23.920345887469004
459,57.94910788536072,23.930002227671924
460,58.0740487575531,23.9182000340911
461,58.1999626159668,23.924637594220858
462,58.32600951194763,23.919272960787943
463,58.45293712615967,23.92463759422323
464,58.57972455024719,23.922491740847693
465,58.70565152168274,23.91820003409189
466,58.83209156990051,23.930002227669558
467,58.95801901817322,23.920345887465846
468,59.08394765853882,23.9289293009814
469,59.20987606048584,23.927856374290077
470,59.336803674697876,23.925710520911387
471,59.46361708641052,23.92463759422323
472,59.587544679641724,23.91712710740373
473,59.71447420120239,23.933221007742723
474,59.841400146484375,23.9182000340911
475,59.96770167350769,23.92571052090981
476,60.09461236000061,23.924637594227175
477,60.22052359580994,23.922491740844535
478,60.34744358062744,23.933221007741142
479,60.4743709564209,23.91605418071872
480,60.6013286113739,23.93429393443405
481,60.72627568244934,23.92785637428929
482,60.85319805145264,23.917127107402937
483,60.9781129360199,23.933221007747463
484,61.10395264625549,23.921418814154794
485,61.23088026046753,23.927856374288496
486,61.3568115234375,23.92034588747058
487,61.48272228240967,23.927856374293235
488,61.609288930892944,23.9214188141619
489,61.737215757369995,23.922491740845327
490,61.863144397735596,23.92249174084217
