,time,temp
0,0.003997325897216797,21.760544983419997
1,0.12692737579345703,21.746596943110518
2,0.25085949897766113,21.765909614318947
3,0.37778520584106445,21.75410742634956
4,0.5017132759094238,21.76483668813654
5,0.6296415328979492,21.76161790960023
6,0.7535712718963623,21.777711802318866
7,0.8805160522460938,21.775565949951876
8,1.0074450969696045,21.79380569509789
9,1.1333675384521484,21.807753735544857
10,1.2602810859680176,21.820628849844383
11,1.3852288722991943,21.84852493094233
12,1.5121562480926514,21.869983454978804
13,1.6394803524017334,21.900025388787444
14,1.7654080390930176,21.92899439657237
15,1.891338586807251,21.967619740566654
16,2.0182688236236572,21.997661675000394
17,2.14517879486084,22.025557757141666
18,2.270106315612793,22.07383943816927
19,2.397048234939575,22.112464783352678
20,2.5239806175231934,22.163965244084054
21,2.6499900817871094,22.20259059000753
22,2.7759172916412354,22.257309830626998
23,2.902845859527588,22.307737366645505
24,3.0287747383117676,22.345289787446013
25,3.1547152996063232,22.417175850972427
26,3.279644012451172,22.453655346319856
27,3.4045724868774414,22.51266629529235
28,3.5294928550720215,22.564166760463742
29,3.6551148891448975,22.628542342740086
30,3.7820546627044678,22.6725323244821
31,3.9089889526367188,22.74656424592475
32,4.036910057067871,22.803429345825688
33,4.1628258228302,22.8570756671285
34,4.2897703647613525,22.913940768396444
35,4.415679454803467,22.971878796847463
36,4.541626453399658,23.04483779667953
37,4.66752028465271,23.088827782442017
38,4.794428825378418,23.153203372137266
39,4.9193572998046875,23.21114140364761
40,5.046284437179565,23.269079435912076
41,5.173231363296509,23.336673807823804
42,5.300153970718384,23.392465988588164
43,5.426068067550659,23.45362280292028
44,5.552995920181274,23.50512327879741
45,5.6799232959747314,23.565207168075833
46,5.806870460510254,23.630655691253438
47,5.932797908782959,23.67357275615554
48,6.0597076416015625,23.734729574368764
49,6.185654401779175,23.77871956693513
50,6.311564683914185,23.84094931327271
51,6.436756134033203,23.888158086944845
52,6.563664197921753,23.93643978781668
53,6.689285039901733,24.001888316518137
54,6.815208911895752,24.035149044592693
55,6.94012451171875,24.1005975747751
56,7.064864635467529,24.13278537686608
57,7.190797328948975,24.183212933955943
58,7.316708087921143,24.21647366342338
59,7.441997289657593,24.27655756245677
60,7.568325757980347,24.303380731936123
61,7.695345640182495,24.357027071398285
62,7.821286678314209,24.38599609498453
63,7.94721531867981,24.42676731370053
64,8.073143005371094,24.463246825510915
65,8.199058294296265,24.491142922992776
66,8.324999570846558,24.535132923212938
67,8.451926708221436,24.558737313766986
68,8.578850507736206,24.602727314697436
69,8.705687046051025,24.617748290731342
70,8.830615520477295,24.64993609668824
71,8.957542419433594,24.67783219538107
72,9.083654642105103,24.69821780608262
73,9.211552143096924,24.730405612637888
74,9.335496664047241,24.74006195465735
75,9.462427377700806,24.77332268843655
76,9.588336706161499,24.780833176746007
77,9.715264797210693,24.807656349388868
78,9.841206789016724,24.82696903380131
79,9.967134952545166,24.83555244911638
80,10.093050956726074,24.8559380605753
81,10.218991041183472,24.858083914415484
82,10.345961093902588,24.884907087552484
83,10.470589399337769,24.892417576055998
84,10.593894243240356,24.902073918441353
85,10.71880316734314,24.89670928378864
86,10.843732595443726,24.912803187795838
87,10.968679666519165,24.922459530218795
88,11.092609882354736,24.9299700187918
89,11.216598510742188,24.924605384094107
90,11.341527462005615,24.933188799619902
91,11.467460632324219,24.92567831104035
92,11.592365741729736,24.936407580439823
93,11.717308521270752,24.92567831103381
94,11.844222784042358,24.93962636126547
95,11.968154191970825,24.919240749405418
96,12.094602346420288,24.922459530217157
97,12.220542192459106,24.917094895531747
98,12.345459222793579,24.922459530225343
99,12.47240400314331,24.908511480044396
100,12.598871231079102,24.9074385531096
101,12.724818706512451,24.896709283782098
102,12.851741313934326,24.890271722194584
103,12.977344036102295,24.87846952597968
104,13.103285312652588,24.86237562210565
105,13.229202508926392,24.867740256724886
106,13.356128454208374,24.848427572130575
107,13.481913089752197,24.84735464521538
108,13.607821464538574,24.83018781454447
109,13.733967781066895,24.824823179968472
110,13.85890531539917,24.81302098393796
111,13.983842849731445,24.79692708031267
112,14.110993146896362,24.782979030559286
113,14.235934495925903,24.7636663463488
114,14.361854791641235,24.755082931168904
115,14.4857919216156,24.73791610087254
116,14.611798524856567,24.734697320209133
117,14.738739490509033,24.708947074900284
118,14.862675189971924,24.703582440484553
119,14.985584735870361,24.683196829759485
120,15.112526178359985,24.670321707249517
121,15.23444390296936,24.658519511647334
122,15.361372232437134,24.63706097427471
123,15.488312721252441,24.61882121758564
124,15.614245653152466,24.614529510144955
125,15.741154193878174,24.590925119280648
126,15.868083238601685,24.584487558158035
127,15.99401044845581,24.555518533230725
128,16.120951652526855,24.5426434111099
129,16.246868133544922,24.534059996373973
130,16.371811151504517,24.51474731329762
131,16.497722864151,24.507236825455507
132,16.624001026153564,24.479340727874593
133,16.75094175338745,24.471830240094516
134,16.8768572807312,24.454663410944203
135,17.002803802490234,24.451444630475656
136,17.129712343215942,24.440715362296235
137,17.25566077232361,24.410673411534688
138,17.379934310913086,24.406381704293945
139,17.507104635238647,24.3817043877735
140,17.63403582572937,24.381704387773496
141,17.759961366653442,24.364537558974288
142,17.887084007263184,24.351662437421385
143,18.0130295753479,24.3366414623247
144,18.138940572738647,24.32054756048935
145,18.265867233276367,24.31303707299186
146,18.39079737663269,24.29694317124377
147,18.516743898391724,24.29265146412087
148,18.64303946495056,24.27226585535305
149,18.767979621887207,24.28299512311473
150,18.893895387649536,24.25617195376009
151,19.019399404525757,24.25402610021623
152,19.145328283309937,24.237932198691162
153,19.269006729125977,24.23471341839493
154,19.39493441581726,24.22398415075466
155,19.520880460739136,24.215400736666215
156,19.646808862686157,24.201452688798316
157,19.773719310760498,24.192869274739373
158,19.899645566940308,24.195015128249725
159,20.025593042373657,24.182140007200374
160,20.15243625640869,24.17355659318925
161,20.279363870620728,24.160681472206008
162,20.40529203414917,24.169264886194036
163,20.532206058502197,24.154243911726727
164,20.658148288726807,24.15102513148948
165,20.784063577651978,24.154243911739467
166,20.910990953445435,24.136004157091403
167,21.036946058273315,24.143514644283282
168,21.16387391090393,24.126347816431352
169,21.289583683013916,24.130639523389963
170,21.4165256023407,24.122056109475132
171,21.542458295822144,24.114545622318243
172,21.669060230255127,24.117764402527655
173,21.794989347457886,24.105962208439976
174,21.920933961868286,24.11669147580311
175,22.04586410522461,24.10167050150839
176,22.170774698257446,24.123129036217172
177,22.295830488204956,24.10059757477828
178,22.421760082244873,24.112399768847684
179,22.547687292099,24.09845172131089
180,22.6736102104187,24.112399768850068
181,22.798543691635132,24.096305867848283
182,22.92545223236084,24.10274342824089
183,23.049712657928467,24.100597574776685
184,23.17665386199951,24.103816354974978
185,23.301581859588623,24.105962208440772
186,23.42849564552307,24.100597574776685
187,23.555441856384277,24.10810806191133
188,23.68135118484497,24.10274342824248
189,23.80729842185974,24.10918098864462
190,23.933226823806763,24.103816354974978
191,24.059154510498047,24.115618549054712
192,24.18426489830017,24.11025391537871
193,24.31089472770691,24.114545622321423
194,24.437833547592163,24.128493669906682
195,24.564489603042603,24.1156185490563
196,24.690412759780884,24.131712450130408
197,24.817340850830078,24.122056109480695
198,24.942269325256348,24.13815001057548
199,25.06819248199463,24.125274889696474
200,25.1941077709198,24.13707708383026
201,25.32103419303894,24.13385830361846
202,25.446962356567383,24.138150010572296
203,25.572890520095825,24.14458757102532
204,25.698820114135742,24.141368790796818
205,25.825746297836304,24.156389765221146
206,25.951313257217407,24.148879278001424
207,26.077781677246094,24.160681472203617
208,26.20472741127014,24.16175439895202
209,26.330639839172363,24.15746269196557
210,26.45557951927185,24.168191959440062
211,26.58094096183777,24.173556593191638
212,26.70786762237549,24.183212933955147
213,26.834796667099,24.17677537344163
214,26.960724592208862,24.188577567724252
215,27.087652444839478,24.186431714217886
216,27.21397352218628,24.19394220149495
217,27.340919971466064,24.20252561555309
218,27.46682906150818,24.19501512824972
219,27.59275794029236,24.205744395822997
220,27.718796491622925,24.207890249344516
221,27.844730615615845,24.220765370463212
222,27.969303369522095,24.210036102856453
223,28.096676349639893,24.22183829722836
224,28.223691940307617,24.22183829722836
225,28.349611520767212,24.227202931046904
226,28.47654914855957,24.230421711332756
227,28.600898504257202,24.230421711332756
228,28.72695279121399,24.2390051254587
229,28.85088300704956,24.236859271931603
230,28.976811408996582,24.242223905762916
231,29.10375714302063,24.241150978992984
232,29.229666233062744,24.26046366084782
233,29.35459566116333,24.254026100218628
234,29.481522798538208,24.259390734078682
235,29.62144446372986,24.24758853959901
236,29.747371435165405,24.26797414825414
237,29.87329936027527,24.2593907340715
238,30.000229597091675,24.27655756245677
239,30.1261568069458,24.272265855351456
240,30.253082513809204,24.272265855349854
241,30.38003420829773,24.28192219633521
242,30.50593900680542,24.26368244116002
243,30.63292956352234,24.28835975700437
244,30.759839057922363,24.284068049891058
245,30.88378643989563,24.28728683022564
246,31.010696172714233,24.286213903448512
247,31.135931253433228,24.28835975700437
248,31.26283860206604,24.29265146412087
249,31.389780044555664,24.288359757002766
250,31.513710021972656,24.303380731934524
251,31.638638496398926,24.28943268378709
252,31.76255488395691,24.29694317124377
253,31.889495134353638,24.293724390901996
254,32.01458930969238,24.29908902480442
255,32.141517162323,24.295870244461042
256,32.266464948654175,24.30123487837467
257,32.393375873565674,24.300161951589544
258,32.51930284500122,24.30767243907343
259,32.6448016166687,24.303380731932922
260,32.76872968673706,24.317328780130765
261,32.895256757736206,24.309818292634077
262,33.02116632461548,24.31303707298786
263,33.14730262756348,24.30445365871725
264,33.274211168289185,24.305526585498374
265,33.40013909339905,24.309818292634876
266,33.52606773376465,24.305526585503973
267,33.650524854660034,24.313037072993463
268,33.77745485305786,24.304453658716447
269,33.903380393981934,24.31625585334404
270,34.0303168296814,24.30338073193772
271,34.15523624420166,24.317328780130765
272,34.28116488456726,24.3065995122819
273,34.407092809677124,24.31303707299026
274,34.534034967422485,24.311964146207533
275,34.65995526313782,24.30123487837147
276,34.78590154647827,24.314109999775386
277,34.91280961036682,24.298016098023293
278,35.037739276885986,24.31947463370342
279,35.16366624832153,24.30123487836907
280,35.2905957698822,24.314109999779387
281,35.41653609275818,24.304453658717247
282,35.54345107078552,24.300161951587945
283,35.66837954521179,24.30123487836827
284,35.794307470321655,24.300161951589544
285,35.920254707336426,24.3065995122835
286,36.04516577720642,24.30552658551118
287,36.171106576919556,24.31303707298706
288,36.29827928543091,24.299089024810023
289,36.425193786621094,24.293724390900394
290,36.54912352561951,24.296943171246973
291,36.6760516166687,24.302307805150196
292,36.80253839492798,24.29479731768152
293,36.9294855594635,24.29479731768072
294,37.05389475822449,24.299089024810026
295,37.18082571029663,24.29157853734214
296,37.307748317718506,24.295870244466645
297,37.433412313461304,24.28835975700437
298,37.56034255027771,24.289432683783886
299,37.687267780303955,24.299089024810026
300,37.81321454048157,24.28299512311233
301,37.94014286994934,24.29694317124217
302,38.06631302833557,24.285140976672185
303,38.193241357803345,24.292651464122464
304,38.31916904449463,24.28299512311473
305,38.44609832763672,24.28192219633601
306,38.57202458381653,24.29479731768072
307,38.69799184799194,24.282995123111533
308,38.82391977310181,24.28621390344611
309,38.95082879066467,24.277630489230692
310,39.07775688171387,24.28621390344611
311,39.20169949531555,24.27548463567724
312,39.327048778533936,24.285140976674583
313,39.45397591590881,24.28406804988946
314,39.580368518829346,24.27977634278575
315,39.70460224151611,24.27655756245437
316,39.83152508735657,24.277630489227494
317,39.957438945770264,24.277630489228294
318,40.08438062667847,24.272265855350653
319,40.211222410202026,24.279776342780153
320,40.33715105056763,24.272265855353055
321,40.46409273147583,24.273338782126984
322,40.59002661705017,24.277630489227494
323,40.71593475341797,24.26582829471347
324,40.8428635597229,24.274411708900114
325,40.96779179573059,24.265828294705486
326,41.09471917152405,24.271192928576724
327,41.219971656799316,24.25724488052843
328,41.34591746330261,24.273338782125386
329,41.47184729576111,24.266901221479408
330,41.59776163101196,24.2701200018012
331,41.72477459907532,24.27119292857673
332,41.850717067718506,24.26046366084462
333,41.97765040397644,24.269047075027274
334,42.10407781600952,24.257244880530827
335,42.22999405860901,24.26797414825574
336,42.35593891143799,24.264755367932352
337,42.483285903930664,24.265828294705486
338,42.60721015930176,24.262609514390086
339,42.734123945236206,24.262609514390086
340,42.85905313491821,24.269047075031263
341,42.982996225357056,24.262609514390086
342,43.10792946815491,24.256171953758496
343,43.233859062194824,24.26475536793315
344,43.35977029800415,24.265828294707077
345,43.485108613967896,24.259390734070692
346,43.61203455924988,24.262609514390086
347,43.73798131942749,24.258317807300763
348,43.864904165267944,24.26046366084303
349,43.98962473869324,24.2390051254587
350,44.11565804481506,24.265828294706285
351,44.24258017539978,24.256171953756898
352,44.36751580238342,24.261536587614557
353,44.49443745613098,24.261536587616156
354,44.61937141418457,24.25724488052843
355,44.74656391143799,24.263682441166413
356,44.87349605560303,24.2593907340715
357,44.99942445755005,24.25724488052763
358,45.12533402442932,24.249734393138084
359,45.25126338005066,24.26368244116242
360,45.378990173339844,24.256171953756898
361,45.50591850280762,24.24973439313968
362,45.63279962539673,24.263682441161617
363,45.75972628593445,24.257244880530028
364,45.88567304611206,24.257244880528432
365,46.01308226585388,24.251880246675558
366,46.138023853302,24.261536587616156
367,46.264952182769775,24.26368244116961
368,46.3908793926239,24.249734393136492
369,46.51679563522339,24.256171953756898
370,46.643210649490356,24.251880246677157
371,46.76813864707947,24.256171953756898
372,46.89472770690918,24.25295317344869
373,47.019657135009766,24.26046366084462
374,47.14711833000183,24.255099026987764
375,47.2720468044281,24.257244880533225
376,47.396977186203,24.256171953756898
377,47.523154497146606,24.258317807299164
378,47.649334192276,24.261536587614557
379,47.77624988555908,24.258317807299164
380,47.90318942070007,24.2701200018028
381,48.0291051864624,24.25080731990802
382,48.15203380584717,24.2669012214914
383,48.27898049354553,24.257244880533225
384,48.40390419960022,24.26475536793315
385,48.52983236312866,24.256171953756898
386,48.65574669837952,24.259390734075488
387,48.78067708015442,24.25617195376329
388,48.90660548210144,24.26475536793395
389,49.032546043395996,24.258317807299164
390,49.15946078300476,24.256171953756898
391,49.28567385673523,24.272265855349854
392,49.41262459754944,24.257244880530028
393,49.53954863548279,24.26475536793395
394,49.664299726486206,24.254026100217825
395,49.79022789001465,24.26475536793715
396,49.91515851020813,24.25617195376169
397,50.04109287261963,24.261536587614557
398,50.167027711868286,24.258317807299164
399,50.293954849243164,24.265828294705486
400,50.42086982727051,24.26046366084462
401,50.547812938690186,24.254026100225815
402,50.67372441291809,24.266901221481007
403,50.7996666431427,24.256171953757697
404,50.9255805015564,24.26797414825334
405,51.05317997932434,24.26475536793555
406,51.1791136264801,24.262609514390086
407,51.306023359298706,24.26797414825334
408,51.43196249008179,24.254026100228213
409,51.55789756774902,24.271192928575132
410,51.683897256851196,24.259390734072298
411,51.8088276386261,24.270120001801203
412,51.931756019592285,24.266901221479408
413,52.05669832229614,24.274411708903312
414,52.18219232559204,24.259390734073886
415,52.309120416641235,24.270120001801203
416,52.435046672821045,24.26260951438689
417,52.56198811531067,24.266901221479408
418,52.686904430389404,24.261536587615357
419,52.81283259391785,24.271192928575132
420,52.938759326934814,24.266901221479408
421,53.065701723098755,24.26368244116002
422,53.19261884689331,24.272265855349854
423,53.3175573348999,24.261536587617755
424,53.44367861747742,24.275484635678843
425,53.569605350494385,24.26260951439089
426,53.69554400444031,24.270120001803598
427,53.82147550582886,24.262609514388487
428,53.947409868240356,24.2701200018028
429,54.073318004608154,24.26797414826213
430,54.200247049331665,24.2593907340707
431,54.327178716659546,24.274411708901713
432,54.45210337638855,24.265828294705486
433,54.57931327819824,24.277630489228294
434,54.70424032211304,24.26475536793315
435,54.83118271827698,24.265828294705486
436,54.957114696502686,24.266901221479408
437,55.084025859832764,24.266901221481007
438,55.21095323562622,24.274411708904914
439,55.33689856529236,24.26260951438689
440,55.46382713317871,24.278703416007023
441,55.59074926376343,24.26797414825254
442,55.71767616271973,24.27226585535465
443,55.84259247779846,24.273338782125382
444,55.967520236968994,24.271192928575132
445,56.094449043273926,24.275484635675642
446,56.21939516067505,24.265828294707084
447,56.34530472755432,24.27977634278575
448,56.47263741493225,24.266901221484204
449,56.598554849624634,24.272265855353055
450,56.723464012145996,24.26260951438849
451,56.849404096603394,24.2701200018028
452,56.976322174072266,24.269047075030468
453,57.102248430252075,24.2701200018012
454,57.22917628288269,24.274411708901713
455,57.355104207992554,24.265828294708683
456,57.481032371520996,24.276557562451167
457,57.60796046257019,24.265828294706285
458,57.73488783836365,24.27655756245197
459,57.86081647872925,24.26475536793555
460,57.9877450466156,24.273338782125386
461,58.11467123031616,24.276557562451167
462,58.24060583114624,24.266901221479415
463,58.366528034210205,24.270120001805996
464,58.49345588684082,24.270120001803598
465,58.618385553359985,24.27548463567724
466,58.74431371688843,24.27119292857673
467,58.86824321746826,24.277630489230695
468,58.99417042732239,24.266901221479408
469,59.12109732627869,24.27119292857673
470,59.24702548980713,24.275484635675642
471,59.371954679489136,24.271192928575932
472,59.49788427352905,24.274411708900914
473,59.62281250953674,24.266901221484204
474,59.74974036216736,24.276557562451167
475,59.87466812133789,24.26368244116002
476,60.000595808029175,24.2701200018012
477,60.126524448394775,24.26475536793395
478,60.254451274871826,24.273338782134978
479,60.38237977027893,24.272265855367444
480,60.50730752944946,24.26368244116002
481,60.63323521614075,24.27870341600862
482,60.76116442680359,24.266901221479408
483,60.88709902763367,24.273338782124586
484,61.014018058776855,24.26368244117201
485,61.13994741439819,24.265828294705486
486,61.26587510108948,24.2701200018004
487,61.39280295372009,24.265828294706285
488,61.51773118972778,24.26904707502967
489,61.64466190338135,24.26046366084462
490,61.771586418151855,24.278703416005424
