,time,temp
0,0.004995822906494141,19.65868305012414
1,0.12693476676940918,19.652245495766355
2,0.25285768508911133,19.6672664559103
3,0.3787872791290283,19.653318421489544
4,0.5047171115875244,19.6672664559143
5,0.6316463947296143,19.656537198659105
6,0.7585761547088623,19.66619353018378
7,0.8855242729187012,19.681214490370394
8,1.0114357471466064,19.683360341828106
9,1.1373653411865234,19.70374593073005
10,1.2622957229614258,19.702673004995525
11,1.3883354663848877,19.735933702841393
12,1.5152628421783447,19.760610994932073
13,1.6411924362182617,19.775631955390676
14,1.7671277523040771,19.816403134004727
15,1.893047571182251,19.833569946144856
16,2.019967794418335,19.878632828300308
17,2.1468982696533203,19.90116426951793
18,2.2738401889801025,19.944081300692634
19,2.3998332023620605,20.00094636755334
20,2.5257620811462402,20.0256236609178
21,2.6486809253692627,20.085707506128593
22,2.774674415588379,20.125405761385927
23,2.899604320526123,20.17368742360663
24,3.026533365249634,20.220896160447367
25,3.1524767875671387,20.28741756310261
26,3.2773942947387695,20.33677215273741
27,3.404336452484131,20.40436648280249
28,3.5302953720092773,20.456939851263215
29,3.65722918510437,20.522388331135183
30,3.783140182495117,20.598566071084207
31,3.909299850463867,20.64577481192359
32,4.035233736038208,20.72517133160804
33,4.161163330078125,20.784182259227407
34,4.288093566894531,20.863578781136457
35,4.41400408744812,20.94190237832801
36,4.5400919914245605,21.006277938599794
37,4.6650166511535645,21.08996616821779
38,4.79192042350769,21.1489771002207
39,4.91583251953125,21.24232166685241
40,5.041763067245483,21.312061861487308
41,5.167693376541138,21.401114726859735
42,5.290934324264526,21.466563219329583
43,5.416442155838013,21.563126570503726
44,5.541372537612915,21.625356286735816
45,5.668318033218384,21.724065493458777
46,5.7941975593566895,21.793805695095706
47,5.92113471031189,21.88178564323891
48,6.048070192337036,21.97727607660992
49,6.173999309539795,22.04272457700696
50,6.299909830093384,22.137142087384195
51,6.4278528690338135,22.217611557952935
52,6.553768157958984,22.30559151403368
53,6.679696083068848,22.398936103402786
54,6.806612491607666,22.471895094105957
55,6.9335408210754395,22.577041876846927
56,7.0594704151153564,22.643563312067908
57,7.184340476989746,22.747637172331796
58,7.311283111572266,22.824887874265436
59,7.438198804855347,22.904284430395812
60,7.5651421546936035,23.002993664274314
61,7.691686153411865,23.079171444063924
62,7.818061351776123,23.175734828745632
63,7.944990634918213,23.25513139103681
64,8.071920156478882,23.334527954734753
65,8.198849201202393,23.432164271486577
66,8.324062824249268,23.50512327879818
67,8.450989961624146,23.596322039630362
68,8.5789155960083,23.681083242557072
69,8.704832553863525,23.747604694095013
70,8.831774950027466,23.847386873290564
71,8.959127426147461,23.917127107404514
72,9.085058212280273,24.002961243225265
73,9.212000131607056,24.0909412341977
74,9.337929964065552,24.154243911724336
75,9.463846683502197,24.24758853960141
76,9.590532541275024,24.307672439066227
77,9.716481447219849,24.394579509418644
78,9.843394041061401,24.463246825510915
79,9.968772172927856,24.536205850052713
80,10.09568977355957,24.617748290726485
81,10.222635746002197,24.681050976005526
82,10.347561836242676,24.761520492548534
83,10.47179388999939,24.81945854541612
84,10.597704410552979,24.901000991507377
85,10.72364854812622,24.951428557648015
86,10.848564863204956,25.03618978720088
87,10.975513458251953,25.09734662477571
88,11.102423906326294,25.157430536241353
89,11.229353427886963,25.232535426785564
90,11.354297399520874,25.282962996912083
91,11.480273962020874,25.360213743816832
92,11.608214616775513,25.41386009667487
93,11.734130620956421,25.472871085623318
94,11.861109018325806,25.53402792960421
95,11.988141059875488,25.58016379496811
96,12.114071607589722,25.647758203270303
97,12.241014242172241,25.692821142760675
98,12.366931676864624,25.74754042709277
99,12.493873357772827,25.80977020231847
100,12.619582176208496,25.84517679899031
101,12.747536420822144,25.902041939739696
102,12.873421430587769,25.94066731881894
103,13.000422954559326,25.99324075203196
104,13.127338409423828,26.05117882207749
105,13.254268407821655,26.079074930172045
106,13.38119626045227,26.128429583424637
107,13.506832838058472,26.159544473835457
108,13.63378095626831,26.200315709894745
109,13.758704662322998,26.245378655501117
110,13.88364028930664,26.27649354680008
111,14.008570432662964,26.323702347854507
112,14.136499881744385,26.339796257433555
113,14.262410163879395,26.38807798655472
114,14.386342525482178,26.40739067836741
115,14.51123595237732,26.455672408310292
116,14.634270906448364,26.46962046372287
117,14.761071920394897,26.50717292087123
118,14.88600778579712,26.51682926705474
119,15.010932445526123,26.554381724644465
120,15.135848999023438,26.56618392568266
121,15.260793447494507,26.601590528976434
122,15.387723684310913,26.61553858490762
123,15.514780521392822,26.642361769529277
124,15.642270565032959,26.67025788172724
125,15.76790976524353,26.670257881735058
126,15.893841743469238,26.703518631142465
127,16.020787477493286,26.704591558547893
128,16.146698236465454,26.727123034123537
129,16.27164340019226,26.728195961537665
130,16.398578643798828,26.745362800165356
131,16.52448844909668,26.758237929174854
132,16.65116858482361,26.758237929173983
133,16.7780978679657,26.787206969617365
134,16.904040336608887,26.781842332479698
135,17.030956268310547,26.786134042186696
136,17.1578848361969,26.80008209876887
137,17.283815383911133,26.791498679326974
138,17.410746335983276,26.802227953629334
139,17.53412652015686,26.797936243908396
140,17.66005849838257,26.809738445661484
141,17.786986112594604,26.793644534187454
142,17.91391658782959,26.79900917133558
143,18.038864612579346,26.80115502620303
144,18.165794134140015,26.78720696961475
145,18.291704893112183,26.79579038906187
146,18.417932987213135,26.77969647762881
147,18.543642044067383,26.78827989704281
148,18.668572425842285,26.7646754937005
149,18.79607915878296,26.76789427596463
150,18.923008680343628,26.7646754937005
151,19.049938201904297,26.734633526011077
152,19.175890684127808,26.736779380836712
153,19.302797079086304,26.717466687439938
154,19.427727699279785,26.711029122984783
155,19.551637649536133,26.688497647501293
156,19.677547693252563,26.686351792703476
157,19.803478240966797,26.67454959131419
158,19.927410125732422,26.66489324475311
159,20.054337978363037,26.639142987364238
160,20.18028688430786,26.62626785873443
161,20.306198120117188,26.614465657526495
162,20.433127641677856,26.575840271997585
163,20.556291580200195,26.573694417262182
164,20.681209564208984,26.539360741566732
165,20.80613875389099,26.536141959483096
166,20.932082891464233,26.500735356763574
167,21.05637216567993,26.49966242941273
168,21.183274745941162,26.46747460904361
169,21.310185194015503,26.455672408299943
170,21.436133861541748,26.426703370269628
171,21.562045097351074,26.40095311441837
172,21.689357042312622,26.39129676851676
173,21.816288471221924,26.3494526032131
174,21.94321870803833,26.333358693594555
175,22.069166660308838,26.303316729149007
176,22.195077896118164,26.281858183253238
177,22.322052717208862,26.259326710187672
178,22.44795536994934,26.226065964459014
179,22.571881771087646,26.215336691703378
180,22.697900772094727,26.172419600962087
181,22.823385000228882,26.16383618287482
182,22.95032000541687,26.126283728924577
183,23.0772488117218,26.106971038459825
184,23.202174425125122,26.075856148464112
185,23.326094388961792,26.052251749311765
186,23.4523606300354,26.021136859727854
187,23.579164028167725,25.98787611595746
188,23.706073999404907,25.975000989410404
189,23.833004474639893,25.929938046814943
190,23.959933280944824,25.90847950289332
191,24.084882020950317,25.880583395967864
192,24.20981216430664,25.856978997948463
193,24.337722063064575,25.835520454413285
194,24.462653636932373,25.796895076333076
195,24.588229179382324,25.774363605954523
196,24.71615767478943,25.728227738422554
197,24.84110164642334,25.718571394122772
198,24.969016075134277,25.684237725676947
199,25.09603786468506,25.647758203269465
200,25.221972465515137,25.63488307779453
201,25.348038911819458,25.589820138944038
202,25.473968744277954,25.578017940745198
203,25.600050449371338,25.530809148317935
204,25.726980447769165,25.50827767939584
205,25.85292887687683,25.49218377309806
206,25.97985315322876,25.45248547116518
207,26.106438875198364,25.435318638016554
208,26.23434853553772,25.403130826049388
209,26.36030077934265,25.369870087279104
210,26.487221479415894,25.35270325446984
211,26.61315608024597,25.31085909979238
212,26.7400803565979,25.29583812129505
213,26.86599636077881,25.259358602311856
214,26.991386890411377,25.237900061877255
215,27.117807388305664,25.20678517844663
216,27.244112014770508,25.17781614925658
217,27.36802387237549,25.157430536243
218,27.495012283325195,25.12846150738956
219,27.621988534927368,25.11344052954665
220,27.748313188552856,25.075888085172746
221,27.876302003860474,25.054429545681632
222,28.002418041229248,25.040481495072807
223,28.129329681396484,24.993272708733606
224,28.25625729560852,24.987908073958117
225,28.382416486740112,24.95572026543465
226,28.50934410095215,24.929970018790982
227,28.636183977127075,24.91602196859286
228,28.761110544204712,24.87954245290712
229,28.888039588928223,24.874177818275637
230,29.014986991882324,24.83447952220526
231,29.141916036605835,24.822677326142966
232,29.267828464508057,24.80980220320867
233,29.394758224487305,24.7733226884398
234,29.52169942855835,24.763666346345538
235,29.646786212921143,24.730405612639515
236,29.77371573448181,24.725040978192933
237,29.900084018707275,24.694999025428967
238,30.02703285217285,24.671394634120816
239,30.153942108154297,24.662811219137417
240,30.280871391296387,24.6316963399433
241,30.406817197799683,24.62311292503361
242,30.533730506896973,24.603800241552555
243,30.659661054611206,24.582341704454276
244,30.78658962249756,24.572685362795408
245,30.912331104278564,24.54049755741986
246,31.037257432937622,24.53727877689571
247,31.162196397781372,24.513674386460266
248,31.289116144180298,24.508309752285605
249,31.41503381729126,24.485778288836645
250,31.541980266571045,24.470757313269257
251,31.66870665550232,24.462173898684846
252,31.79314374923706,24.440715362295432
253,31.92007303237915,24.44178828911024
254,32.0460045337677,24.416038045578986
255,32.17193269729614,24.413892191957412
256,32.297877073287964,24.39028780220199
257,32.42408061027527,24.385996094984534
258,32.55002808570862,24.37526682696657
259,32.67694401741028,24.34951658383111
260,32.8030161857605,24.360245851787315
261,32.92992663383484,24.33234975516177
262,33.05585837364197,24.335568535532364
263,33.181787967681885,24.319474633701823
264,33.30971574783325,24.30123487836827
265,33.435758113861084,24.309818292636475
266,33.56268787384033,24.289432683783886
267,33.68960523605347,24.290505610561816
268,33.81568193435669,24.285140976667385
269,33.943612813949585,24.267974148255735
270,34.07095003128052,24.27119292858152
271,34.19586682319641,24.252953173445494
272,34.32181477546692,24.251880246677157
273,34.44562649726868,24.23578634516167
274,34.57255578041077,24.236859271924423
275,34.698503732681274,24.237932198691162
276,34.823002099990845,24.232567564862247
277,34.949931144714355,24.234713418393333
278,35.076844930648804,24.222911223987914
279,35.20277118682861,24.232567564863047
280,35.32878541946411,24.216473663421784
281,35.45572781562805,24.211109029615212
282,35.58265566825867,24.225057077513416
283,35.70758128166199,24.205744395822197
284,35.83351683616638,24.214327809895483
285,35.96044087409973,24.205744395820602
286,36.08535671234131,24.216473663420185
287,36.211308002471924,24.201452688796717
288,36.33721733093262,24.214327809898677
289,36.4639368057251,24.20896317609609
290,36.589884996414185,24.201452688788745
291,36.717021226882935,24.218619516941704
292,36.84287667274475,24.205744395820602
293,36.96978712081909,24.21540073665664
294,37.09678816795349,24.21003610286283
295,37.22483849525452,24.211109029615212
296,37.351762533187866,24.22291122398951
297,37.4756817817688,24.214327809908248
298,37.60063314437866,24.225057077515814
299,37.72525596618652,24.22076537046401
300,37.849987506866455,24.232567564863846
301,37.974936962127686,24.227202931042108
302,38.10284638404846,24.23578634516566
303,38.2298309803009,24.24115097899138
304,38.35533881187439,24.244369759294
305,38.48225450515747,24.252953173447093
306,38.60918593406677,24.245442686063136
307,38.736127853393555,24.265828294706285
308,38.86161255836487,24.25724488052843
309,38.988529443740845,24.263682441159222
310,39.11346459388733,24.273338782126984
311,39.23938965797424,24.273338782124586
312,39.36532473564148,24.29479731768152
313,39.492106199264526,24.28406804988946
314,39.618041038513184,24.30123487836827
315,39.74496531486511,24.29479731768072
316,39.87188196182251,24.304453658715648
317,39.99716877937317,24.320547560490148
318,40.124096393585205,24.316255853343236
319,40.25002646446228,24.336641462323097
320,40.37695598602295,24.330203901588312
321,40.5038857460022,24.34737073024564
322,40.62961292266846,24.351662437419783
323,40.756239891052246,24.354881217804802
324,40.88017535209656,24.37848560736843
325,41.006094217300415,24.364537558974288
326,41.13204097747803,24.39243365580831
327,41.255003929138184,24.382777314575456
328,41.38093852996826,24.40208999707167
329,41.50587725639343,24.394579509419444
330,41.63278841972351,24.416038045577384
331,41.75972104072571,24.417110972388173
332,41.885550022125244,24.43320487458696
333,42.01131081581116,24.431059020953327
334,42.13824105262756,24.439642435478213
335,42.2641704082489,24.46539267915259
336,42.39111876487732,24.457882191397466
337,42.518043756484985,24.480413654699852
338,42.643959283828735,24.477194874220032
339,42.77090311050415,24.481486581529953
340,42.895692348480225,24.498653410792972
341,43.02262282371521,24.502945118119808
342,43.149569272994995,24.519039020636537
343,43.27548027038574,24.520111947472273
344,43.402424335479736,24.536205850052713
345,43.5283420085907,24.54371633795128
346,43.65497660636902,24.538351703734676
347,43.78165602684021,24.565174874851618
348,43.907512187957764,24.558737313767796
349,44.03544092178345,24.580195850748083
350,44.160385608673096,24.581268777599963
351,44.28677010536194,24.59092511927903
352,44.412718057632446,24.604873168411714
353,44.53764510154724,24.61023780270347
354,44.66256093978882,24.62847755934964
355,44.788992166519165,24.61989414444723
356,44.91525840759277,24.648863169813694
357,45.04017615318298,24.641352681737253
358,45.16710567474365,24.658519511644094
359,45.29403567314148,24.661738292260438
360,45.42096471786499,24.669248780371724
361,45.547911405563354,24.68748853727227
362,45.672836780548096,24.67890512225724
363,45.797754764556885,24.70465536737127
364,45.92268514633179,24.69714487919266
365,46.0488920211792,24.718603416872625
366,46.17582035064697,24.717530489982657
367,46.30209732055664,24.72182219753034
368,46.42802572250366,24.743280735332128
369,46.55436325073242,24.733624393307796
370,46.68129324913025,24.755082931170527
371,46.80722236633301,24.74971829669387
372,46.933266162872314,24.76795805393874
373,47.06020927429199,24.77439561534441
374,47.18613910675049,24.76688512704065
375,47.31107187271118,24.791562445782308
376,47.43811655044556,24.780833176749262
377,47.56503176689148,24.80443756866283
378,47.691795110702515,24.802291714849545
379,47.81570744514465,24.81731269158409
380,47.94263744354248,24.82375025305735
381,48.06958532333374,24.821604399234282
382,48.19549584388733,24.844135864459176
383,48.32144594192505,24.83233366836997
384,48.44835543632507,24.841990010618176
385,48.574299335479736,24.85164635288922
386,48.700233697891235,24.855938060572853
387,48.82633376121521,24.868813183650694
388,48.95341968536377,24.86452147595155
389,49.08033061027527,24.88490708754922
390,49.20727348327637,24.8731048913482
391,49.333189249038696,24.881688306762815
392,49.45912146568298,24.890271722195404
393,49.585062742233276,24.884907087550037
394,49.712114095687866,24.910657333918888
395,49.83874583244324,24.8988551376427
396,49.96464467048645,24.911730260850415
397,50.08959341049194,24.906365626176438
398,50.21352458000183,24.9213866032791
399,50.339449644088745,24.919240749403784
400,50.46638369560242,24.919240749403784
401,50.59439659118652,24.93533465349603
402,50.721312522888184,24.926751237972695
403,50.84830713272095,24.939626361263837
404,50.97423005104065,24.94820977681418
405,51.101160764694214,24.934261726553878
406,51.22808909416199,24.95786611932633
407,51.35502314567566,24.949282703757156
408,51.47993469238281,24.958939046274217
409,51.605878591537476,24.952501484594265
410,51.732205390930176,24.954647338485945
411,51.858147621154785,24.967522461866327
412,51.985076665878296,24.963230754067407
413,52.112072229385376,24.97074124271245
414,52.23700308799744,24.966449534912705
415,52.36294674873352,24.97717880442025
416,52.48886251449585,24.976105877468267
417,52.61410427093506,24.98147051223392
418,52.741021156311035,24.985762220047594
419,52.86696910858154,24.972887096615594
420,52.99432992935181,24.99649148961252
421,53.121915102005005,24.983616366139533
422,53.246827125549316,24.99005392786618
423,53.372775077819824,24.99219978177753
424,53.499685287475586,24.97932465832832
425,53.62641787528992,24.999710270475028
426,53.752357006073,24.991126854836207
427,53.87827277183533,25.000783197432753
428,54.00421714782715,24.992199781779988
429,54.130220890045166,24.991126854823907
430,54.256171226501465,25.008293686148292
431,54.38206720352173,24.988981000911746
432,54.50599765777588,25.005074905269385
433,54.630518436431885,24.99005392786536
434,54.75642943382263,24.997564416562863
435,54.8807418346405,24.98898100091092
436,55.00467276573181,24.999710270475845
437,55.13160228729248,24.98468929309233
438,55.25857853889465,25.00292905135312
439,55.38552451133728,24.994345635691335
440,55.51145005226135,25.000783197432753
441,55.63737988471985,24.99434563568969
442,55.761613845825195,24.996491489604317
443,55.88651394844055,24.98898100091092
444,56.01143026351929,24.991126854821445
445,56.13737916946411,24.99112685482309
446,56.26129078865051,24.993272708734434
447,56.38823914527893,24.99219978177671
448,56.515164613723755,24.982543439185903
449,56.641093730926514,24.998637343518944
450,56.767075538635254,24.972887096618052
451,56.89464783668518,24.987908073955655
452,57.020591735839844,24.990053927867002
453,57.146859645843506,24.97074124271572
454,57.27280306816101,24.98683514700039
455,57.398738861083984,24.972887096617235
456,57.525649070739746,24.98039758528112
457,57.65090036392212,24.965376607963993
458,57.776835203170776,24.975032950517104
459,57.90376091003418,24.975032950517104
460,58.0286910533905,24.966449534914346
461,58.15605044364929,24.975032950518745
462,58.2829487323761,24.96215782711788
463,58.409865617752075,24.97181416966361
464,58.535807847976685,24.9600119732221
465,58.66172504425049,24.95786611932797
466,58.78852128982544,24.96323075407314
467,58.91346502304077,24.94820977681336
468,59.03838229179382,24.957866119331243
469,59.162840127944946,24.946063922925777
470,59.2877836227417,24.95893904627913
471,59.41471767425537,24.94069928820599
472,59.541643381118774,24.952501484594265
473,59.667572021484375,24.94284514209276
474,59.79350256919861,24.94606392292905
475,59.91943836212158,24.944990995980344
476,60.04536151885986,24.933188799615813
477,60.17229628562927,24.935334653513216
478,60.29959678649902,24.923532457156043
479,60.425509452819824,24.936407580439823
480,60.552451372146606,24.926751237972695
481,60.67942214012146,24.921386603279917
482,60.806354999542236,24.926751237971875
483,60.93245077133179,24.907438553112055
484,61.057382106781006,24.92031367634185
485,61.18330931663513,24.905292699245738
486,61.310240268707275,24.91280318778439
487,61.435789585113525,24.909584406979196
488,61.562546491622925,24.90529269924083
