,time,temp
0,0.003997325897216797,21.71333623175896
1,0.13091754913330078,21.721919641117218
2,0.2578451633453369,21.725138419629562
3,0.383791446685791,21.71440915793046
4,0.5107007026672363,21.72621134580252
5,0.6366291046142578,21.72513841963101
6,0.7625548839569092,21.73157597666513
7,0.8884847164154053,21.736940607534283
8,1.0164108276367188,21.7412323122312
9,1.142357587814331,21.760544983417095
10,1.2692663669586182,21.753034500172244
11,1.3962128162384033,21.770201319042023
12,1.5221233367919922,21.786295211792673
13,1.6490504741668701,21.795951547471436
14,1.7739996910095215,21.82813933320642
15,1.8969218730926514,21.835649816568456
16,2.0248351097106934,21.860327119152796
17,2.1517815589904785,21.871056381181614
18,2.2767105102539062,21.895733683945533
19,2.4026215076446533,21.917192208198966
20,2.5295610427856445,21.942942437436244
21,2.6554787158966064,21.96654681433605
22,2.7804176807403564,21.99766167499746
23,2.906351089477539,22.015901420994943
24,3.0324490070343018,22.04487042949315
25,3.159391403198242,22.069547733172612
26,3.2853238582611084,22.102808447036022
27,3.41133451461792,22.138215013649383
28,3.538261651992798,22.16718402289956
29,3.6631953716278076,22.19722595861214
30,3.7891056537628174,22.221903263089068
31,3.9160337448120117,22.259455683198016
32,4.042223691940308,22.286278840604528
33,4.168319940567017,22.32597711385044
34,4.294228792190552,22.361383682167762
35,4.4209394454956055,22.39249854545422
36,4.546853542327881,22.428978040612154
37,4.673795223236084,22.456874125342644
38,4.800723552703857,22.492280694653154
39,4.9266369342803955,22.530906043306608
40,5.053584814071655,22.5630938340996
41,5.1774938106536865,22.607083815223007
42,5.303636789321899,22.632834048258236
43,5.4315643310546875,22.673605250869535
44,5.557024955749512,22.703647189869272
45,5.682935953140259,22.74012668749227
46,5.806864500045776,22.776606185406006
47,5.933805704116821,22.808793977922942
48,6.060732841491699,22.851711034967593
49,6.187067270278931,22.879607122260282
50,6.312997102737427,22.91394076839948
51,6.439943790435791,22.947201488343843
52,6.566858291625977,22.982608061449028
53,6.690781593322754,23.014795855433622
54,6.81570839881897,23.048056576107303
55,6.942172527313232,23.08990070892813
56,7.069389581680298,23.105994606274955
57,7.195303201675415,23.15213044563199
58,7.320231199264526,23.180026534782073
59,7.4471776485443115,23.21114140364992
60,7.572086334228516,23.246547978828616
61,7.699015378952026,23.276589921625813
62,7.824961185455322,23.311996497329016
63,7.951883792877197,23.333455028187906
64,8.078219175338745,23.359205265360835
65,8.205145597457886,23.390320135471285
66,8.331075191497803,23.42143500579763
67,8.458020687103271,23.4471852434759
68,8.583930492401123,23.481518893945754
69,8.710098266601562,23.509414985151377
70,8.834308385848999,23.528727663774184
71,8.961255311965942,23.561988388272418
72,9.088196754455566,23.585592773555874
73,9.214130640029907,23.605978379122433
74,9.341050386428833,23.63709325096243
75,9.466980695724487,23.663916416515875
76,9.59309983253479,23.693958362137636
77,9.720012426376343,23.697177142039433
78,9.84659457206726,23.725073234591335
79,9.972521781921387,23.749750547388725
80,10.100449323654175,23.767990300413185
81,10.227376461029053,23.79159468679632
82,10.355303287506104,23.815199073300416
83,10.481250286102295,23.83665760659886
84,10.607160091400146,23.84845979995824
85,10.734087467193604,23.86777248007084
86,10.861029624938965,23.8838663802269
87,10.985943794250488,23.90854369391343
88,11.112418174743652,23.92678344760034
89,11.23934555053711,23.9396585678938
90,11.365273475646973,23.95897124840941
91,11.49220061302185,23.977211002313528
92,11.619142532348633,23.986867342629424
93,11.7454993724823,24.004034169933973
94,11.87182092666626,24.019055143879676
95,11.998741865158081,24.02978441101588
96,12.12626028060913,24.044805385051884
97,12.253201007843018,24.05553465225069
98,12.380752563476562,24.070555626374706
99,12.506662607192993,24.080211966908443
100,12.633599758148193,24.089868307465196
101,12.760530710220337,24.104889281709863
102,12.886459350585938,24.10381635497975
103,13.013387203216553,24.120983182741046
104,13.14030146598816,24.129566596646335
105,13.266228914260864,24.138150010573092
106,13.393166780471802,24.141368790796815
107,13.520097970962524,24.14995220474744
108,13.646026372909546,24.168191959443245
109,13.772959470748901,24.16175439895043
110,13.89829158782959,24.17355659318925
111,14.025219917297363,24.184285860707536
112,14.152146816253662,24.18106708045117
113,14.27848219871521,24.192869274739376
114,14.403416156768799,24.19179634798699
115,14.530324935913086,24.20252561555628
116,14.656253814697266,24.202525615546712
117,14.781181812286377,24.198233908519633
118,14.908110618591309,24.210036102860442
119,15.035056591033936,24.207890249338924
120,15.159980058670044,24.220765370463212
121,15.28589415550232,24.20896317609689
122,15.411841630935669,24.221838297225965
123,15.537769317626953,24.21540073665824
124,15.664697170257568,24.218619516941704
125,15.790607690811157,24.222911223987914
126,15.917552947998047,24.216473663417002
127,16.04346251487732,24.218619516940105
128,16.170612335205078,24.21754659017816
129,16.29652738571167,24.222911223992707
130,16.42345404624939,24.217546590178948
131,16.550400257110596,24.21754659018294
132,16.676323890686035,24.22505707751581
133,16.803251266479492,24.216473663418597
134,16.929179430007935,24.216473663420185
135,17.055095195770264,24.21540073665824
136,17.18311905860901,24.21218195637557
137,17.310047388076782,24.22291122398951
138,17.435504913330078,24.21110902961601
139,17.561420917510986,24.20037976203158
140,17.687349557876587,24.203598542310253
141,17.81427526473999,24.201452688793527
142,17.939207792282104,24.20145268879193
143,18.067132711410522,24.192869274740968
144,18.19307804107666,24.1993068352776
145,18.318987607955933,24.184285860707536
146,18.444929599761963,24.188577567721865
147,18.57295274734497,24.18428586070913
148,18.699893712997437,24.169264886190852
149,18.825809001922607,24.176775373443217
150,18.95075798034668,24.163900252452812
151,19.077433109283447,24.167119032696434
152,19.204346656799316,24.163900252448038
153,19.331274271011353,24.158535618709198
154,19.45820140838623,24.14995220474903
155,19.584129810333252,24.144587571031686
156,19.711076498031616,24.14887927799983
157,19.83598756790161,24.142441717542834
158,19.962913751602173,24.13815001057309
159,20.09039044380188,24.138150010570705
160,20.21632719039917,24.11991025600219
161,20.342353582382202,24.11883732926572
162,20.468281984329224,24.11347269558574
163,20.59522008895874,24.1156185490563
164,20.72013831138611,24.11347269558892
165,20.84773063659668,24.105962208440772
166,20.974670886993408,24.09845172131725
167,21.100694179534912,24.09416001439043
168,21.227617979049683,24.094160014392013
169,21.35456371307373,24.087722454008937
170,21.480486392974854,24.08557660054791
171,21.60740089416504,24.080211966913204
172,21.732342958450317,24.07270147982462
173,21.860257387161255,24.067336846204196
174,21.988184690475464,24.06840977292479
175,22.113152980804443,24.057680505695053
176,22.24008083343506,24.057680505697427
177,22.366008758544922,24.048024165209704
178,22.492955446243286,24.049097091930296
179,22.617868185043335,24.039440751464763
180,22.744791746139526,24.03944075146397
181,22.871719360351562,24.037294898027536
182,22.999646425247192,24.028711484300832
183,23.126368761062622,24.02656563087312
184,23.251298427581787,24.02656563087312
185,23.378244638442993,24.02656563087312
186,23.504154682159424,24.009398803484654
187,23.629096508026123,24.011544656906825
188,23.757028818130493,24.005107096643478
189,23.883951663970947,23.993304902870612
190,24.009867191314697,24.00081538980942
191,24.136416912078857,23.993304902861112
192,24.263357400894165,23.990086122753972
193,24.39027166366577,23.992231976162692
194,24.516199350357056,23.9836485625207
195,24.643127918243408,23.983648562520695
196,24.769073486328125,23.972919295496883
197,24.894972562789917,23.972919295496883
198,25.02290105819702,23.971846368796083
199,25.149399757385254,23.969700515395278
200,25.276329517364502,23.975065148898484
201,25.403242588043213,23.957898321707823
202,25.529786109924316,23.956825395014132
203,25.655701160430908,23.96219002850707
204,25.783641815185547,23.953606614924382
205,25.908570289611816,23.951460761529898
206,26.035483837127686,23.943950274667763
207,26.161531448364258,23.942877347975653
208,26.288440704345703,23.94716905474883
209,26.414368152618408,23.932148081052986
210,26.541295051574707,23.936439787819054
211,26.668222904205322,23.93214808105062
212,26.795150995254517,23.935366861126152
213,26.92109227180481,23.936439787819843
214,27.048025131225586,23.921418814157164
215,27.17460870742798,23.92678344760034
216,27.300550937652588,23.92678344760034
217,27.427483558654785,23.92463759422007
218,27.554392099380493,23.926783447601917
219,27.67933988571167,23.912835400656608
220,27.806262969970703,23.92141881416979
221,27.931178331375122,23.911762473973962
222,28.057105779647827,23.918200034090308
223,28.184049367904663,23.913908327342398
224,28.309961318969727,23.912835400656604
225,28.436903476715088,23.912835400661336
226,28.5628182888031,23.909616620608688
227,28.688745975494385,23.910689547292115
228,28.81569266319275,23.905324913866295
229,28.94215989112854,23.908543693920524
230,29.07006597518921,23.8978144270823
231,29.195993661880493,23.90210613381049
232,29.32292151451111,23.899960280441267
233,29.44884943962097,23.901033207125483
234,29.576776266098022,23.902106133808125
235,29.703718185424805,23.90317906049313
236,29.83064579963684,23.894595647032013
237,29.956562280654907,23.90210613380891
238,30.083228588104248,23.894595647029643
239,30.20914387702942,23.899960280443633
240,30.335071802139282,23.90103320712706
241,30.46145987510681,23.893522720347793
242,30.58906078338623,23.90210613380891
243,30.71500825881958,23.888158086943267
244,30.84091877937317,23.893522720347
245,30.96884560585022,23.89352272034937
246,31.094189643859863,23.888158086943267
247,31.2211172580719,23.887085160265357
248,31.347058296203613,23.893522720347
249,31.474990129470825,23.89888735376099
250,31.601422786712646,23.892449793669094
251,31.72735595703125,23.887085160266142
252,31.854283571243286,23.89137686698803
253,31.98120641708374,23.894595647028854
254,32.107120990753174,23.896741500393347
255,32.23306751251221,23.892449793667517
256,32.360989570617676,23.89244979367067
257,32.48690485954285,23.887085160270086
258,32.61385107040405,23.892449793669886
259,32.74075984954834,23.895668573710708
260,32.86670756340027,23.89137686698646
261,32.99362921714783,23.894595647032798
262,33.11855745315552,23.897814427076774
263,33.24548625946045,23.894595647028854
264,33.371399879455566,23.893522720357254
265,33.49832773208618,23.89352272035252
266,33.62327170372009,23.894595647028854
267,33.74918580055237,23.89888735376099
268,33.87712550163269,23.892449793669094
269,34.00304055213928,23.89244979367067
270,34.12996983528137,23.896741500399656
271,34.25789451599121,23.891376866994335
272,34.383824586868286,23.896741500394928
273,34.51076889038086,23.894595647029643
274,34.63667917251587,23.89781442707914
275,34.76262044906616,23.902106133812065
276,34.888551473617554,23.8978144270752
277,35.01547813415527,23.898887353759413
278,35.142266511917114,23.895668573713863
279,35.26921248435974,23.903179060491553
280,35.395135164260864,23.90425198717577
281,35.52105498313904,23.905324913859197
282,35.648465394973755,23.90747076722842
283,35.77434062957764,23.899960280443633
284,35.9012885093689,23.896741500395713
285,36.02819561958313,23.906397840548937
286,36.15391492843628,23.90532491386551
287,36.27984285354614,23.907470767230002
288,36.40777087211609,23.901033207124694
289,36.53271269798279,23.907470767232365
290,36.65864181518555,23.906397840545782
291,36.78355693817139,23.89888735376099
292,36.9094979763031,23.905324913859985
293,37.036412477493286,23.913908327343186
294,37.16258120536804,23.9117624739716
295,37.28850293159485,23.90747076722921
296,37.414430141448975,23.90854369391343
297,37.53937768936157,23.908543693914215
298,37.66731548309326,23.91390832734713
299,37.7932448387146,23.910689547285806
300,37.919172286987305,23.91605418072109
301,38.04608607292175,23.914981254029772
302,38.17237567901611,23.91283540065897
303,38.297303915023804,23.917127107402937
304,38.42423129081726,23.906397840545782
305,38.55115842819214,23.917127107406095
306,38.67710018157959,23.914981254030558
307,38.80401659011841,23.909616620599223
308,38.93094229698181,23.9246375942248
309,39.05588150024414,23.92141881415401
310,39.18281173706055,23.918200034093466
311,39.307740926742554,23.912835400656604
312,39.4346559047699,23.913908327343186
313,39.561596632003784,23.92141881415401
314,39.68703770637512,23.917127107410828
315,39.81394648551941,23.919272960780052
316,39.93987488746643,23.919272960780052
317,40.06671857833862,23.9246375942327
318,40.19334530830383,23.91712710740373
319,40.32027792930603,23.918200034090308
320,40.44620108604431,23.924637594220073
321,40.573116064071655,23.92463759422165
322,40.700056314468384,23.927856374291657
323,40.82698369026184,23.92356466753112
324,40.95289874076843,23.92249174084217
325,41.07982635498047,23.932148081055352
326,41.20475506782532,23.927856374290077
327,41.33068323135376,23.930002227673505
328,41.457611083984375,23.922491740844535
329,41.583552837371826,23.92678344760192
330,41.70948052406311,23.92141881415874
331,41.83641338348389,23.917127107406095
332,41.96233654022217,23.926783447601917
333,42.08926963806152,23.927856374291657
334,42.21319842338562,23.93429393444826
335,42.33910775184631,23.92571052090981
336,42.466036558151245,23.932148081055352
337,42.592982053756714,23.92356466753112
338,42.71889114379883,23.9289293009885
339,42.845818519592285,23.928929300983768
340,42.97275519371033,23.928929300980606
341,43.09867572784424,23.935366861134053
342,43.22462177276611,23.93000222767035
343,43.350544929504395,23.927856374304287
344,43.47672128677368,23.930002227668773
345,43.60366415977478,23.928929300980606
346,43.728885650634766,23.926783447602705
347,43.855815410614014,23.918200034095047
348,43.98175501823425,23.93429393443563
349,44.109010219573975,23.931075154359295
350,44.23595142364502,23.92892930097903
351,44.362865686416626,23.934293934432468
352,44.48980665206909,23.92463759422165
353,44.61474084854126,23.92678344760192
354,44.7426483631134,23.931075154359295
355,44.86859369277954,23.9321480810522
356,44.99551844596863,23.93536686112457
357,45.123422384262085,23.935366861126152
358,45.250364780426025,23.935366861126152
359,45.37728810310364,23.933221007744304
360,45.50422263145447,23.93214808105062
361,45.629385232925415,23.935366861129314
362,45.75629138946533,23.9342939344372
363,45.88323354721069,23.931075154364034
364,46.00916123390198,23.9321480810522
365,46.13607454299927,23.93107515436325
366,46.26302146911621,23.927856374290077
367,46.388938903808594,23.92892930098061
368,46.51385951042175,23.931075154360876
369,46.64179801940918,23.935366861129314
370,46.767733573913574,23.936439787815896
371,46.89265775680542,23.931075154360876
372,47.020586252212524,23.93214808105062
373,47.14589333534241,23.93536686112457
374,47.273839235305786,23.934293934432468
375,47.399749994277954,23.93643978781668
376,47.52777457237244,23.933221007742723
377,47.65468382835388,23.93643978781668
378,47.78061032295227,23.935366861126152
379,47.90653848648071,23.935366861133257
380,48.03447961807251,23.93536686112457
381,48.15915656089783,23.934293934432468
382,48.28608465194702,23.932148081055352
383,48.41299796104431,23.940731494587485
384,48.53892660140991,23.933221007744304
385,48.66585373878479,23.936439787819047
386,48.792781591415405,23.934293934432468
387,48.918723583221436,23.93536686112457
388,49.044652223587036,23.938585641205638
389,49.17056679725647,23.933221007744304
390,49.29649543762207,23.92892930097903
391,49.42343711853027,23.936439787829315
392,49.550363302230835,23.93858564120327
393,49.6762969493866,23.93751271450879
394,49.80320620536804,23.93751271450879
395,49.93015217781067,23.938585641205638
396,50.05606198310852,23.934293934440362
397,50.18292021751404,23.93643978782063
398,50.31051206588745,23.93643978781668
399,50.43566036224365,23.935366861126152
400,50.563074827194214,23.942877347972495
401,50.6899847984314,23.93751271451116
402,50.81592535972595,23.93751271450879
403,50.94185829162598,23.942877347976438
404,51.06878662109375,23.934293934432468
405,51.194714307785034,23.93965856789617
406,51.321627378463745,23.92892930098061
407,51.44726610183716,23.940731494590647
408,51.573211431503296,23.932148081052986
409,51.69913983345032,23.9321480810522
410,51.826048612594604,23.939658567900906
411,51.95299696922302,23.940731494589066
412,52.0779185295105,23.93965856789301
413,52.203723430633545,23.93322100774194
414,52.32765221595764,23.940731494589066
415,52.45256686210632,23.93643978781747
416,52.5805127620697,23.9321480810522
417,52.70642399787903,23.93107515436325
418,52.83334946632385,23.93858564120248
419,52.960291147232056,23.9321480810522
420,53.086207151412964,23.93536686112457
421,53.2121479511261,23.93536686112457
422,53.33833312988281,23.9289293009814
423,53.4642550945282,23.934293934432468
424,53.59219980239868,23.93107515436009
425,53.7181282043457,23.935366861138792
426,53.845050573349,23.9342939344372
427,53.97096562385559,23.93214808105062
428,54.09895300865173,23.940731494585904
429,54.22490978240967,23.9342939344372
430,54.35181999206543,23.93214808106009
431,54.47876000404358,23.935366861130895
432,54.604674339294434,23.935366861126944
433,54.72862219810486,23.933221007742723
434,54.85453200340271,23.934293934433256
435,54.98046159744263,23.936439787817477
436,55.10638785362244,23.926783447599547
437,55.232330322265625,23.940731494593805
438,55.35926342010498,23.934293934433253
439,55.48617243766785,23.936439787819843
440,55.610968351364136,23.935366861126944
441,55.73889517784119,23.9310751543664
442,55.864805698394775,23.928929300983768
443,55.991745948791504,23.92678344759876
444,56.119215965270996,23.935366861129314
445,56.24402093887329,23.932148081052986
446,56.37051582336426,23.93536686112457
447,56.49846124649048,23.93965856789459
448,56.62438917160034,23.935366861126152
449,56.751312017440796,23.937512714508
450,56.87822508811951,23.933221007741142
451,57.00515389442444,23.935366861126944
452,57.13168120384216,23.931075154362457
453,57.25962710380554,23.934293934432468
454,57.385552167892456,23.93214808106009
455,57.51146459579468,23.937512714515897
456,57.639392137527466,23.938585641200902
457,57.76432180404663,23.93429393443405
458,57.89226150512695,23.93536686112457
459,58.018176317214966,23.937512714515897
460,58.14512276649475,23.92892930098061
461,58.27204966545105,23.932148081052986
462,58.398977279663086,23.93536686112457
463,58.524908781051636,23.9289293009814
464,58.65182852745056,23.933221007745097
465,58.77874422073364,23.935366861123786
466,58.90595579147339,23.93322100774194
467,59.03290152549744,23.93643978782695
468,59.15897583961487,23.92571052090981
469,59.285919189453125,23.935366861126944
470,59.411832332611084,23.936439787815896
471,59.53875994682312,23.934293934435622
472,59.66570067405701,23.93322100774825
473,59.79061508178711,23.931075154360876
474,59.91755700111389,23.93214808105062
475,60.04247808456421,23.934293934432468
476,60.1687433719635,23.933221007745097
477,60.29567050933838,23.930002227669558
478,60.42260479927063,23.9321480810522
479,60.54953861236572,23.934293934433256
480,60.67547249794006,23.935366861126944
481,60.80239963531494,23.935366861126944
482,60.927324295043945,23.93536686112457
483,61.05423831939697,23.934293934433253
484,61.182177782058716,23.937512714525372
485,61.30809235572815,23.936439787819843
486,61.43458294868469,23.93858564120722
487,61.56151509284973,23.927856374294816
488,61.687426805496216,23.9321480810522
489,61.81435179710388,23.93965856789459
