,time,temp
0,0.0039789676666259766,21.71548208409689
1,0.1309061050415039,21.707971600920292
2,0.25583529472351074,21.71333623176041
3,0.3817634582519531,21.707971600918846
4,0.505706787109375,21.718700862606326
5,0.632638692855835,21.711190379424657
6,0.7575507164001465,21.72299256728872
7,0.8850464820861816,21.717627936458047
8,1.0109741687774658,21.726211345801794
9,1.1379036903381348,21.740159386064054
10,1.2628307342529297,21.735867681355515
11,1.388758659362793,21.76161790959659
12,1.515282154083252,21.76161790959659
13,1.6432132720947266,21.777711802319594
14,1.7691404819488525,21.797024473656027
15,1.8960821628570557,21.80453495697508
16,2.022010087966919,21.837795668960943
17,2.148937702178955,21.846379078544015
18,2.2748658657073975,21.868910528772343
19,2.4007813930511475,21.896806610160024
20,2.5267081260681152,21.911827577123542
21,2.653656244277954,21.942942437420868
22,2.77957820892334,21.957963404538784
23,2.9054930210113525,21.995515822531097
24,3.0314204692840576,22.019120199711008
25,3.1593499183654785,22.04272457700549
26,3.283297300338745,22.081349921931267
27,3.408219814300537,22.10173552076715
28,3.534135580062866,22.13821501364569
29,3.6600635051727295,22.16396524408701
30,3.786756992340088,22.20259059000827
31,3.912684679031372,22.22404911565862
32,4.040732145309448,22.262674462080124
33,4.167659521102905,22.299153956216045
34,4.293587684631348,22.323831261236393
35,4.420514345169067,22.369967092708745
36,4.545445203781128,22.390352692811902
37,4.671384811401367,22.437561451276867
38,4.7982988357543945,22.475113873130987
39,4.924241304397583,22.493353620999315
40,5.051155090332031,22.539489454166496
41,5.176084280014038,22.569531392286688
42,5.300013303756714,22.613521373465648
43,5.424941539764404,22.6403445329259
44,5.550657272338867,22.684334514786112
45,5.674584865570068,22.70472011627254
46,5.801536321640015,22.754074730776356
47,5.927198171615601,22.784116670303725
48,6.0551393032073975,22.818450315730104
49,6.181067705154419,22.862440299290157
50,6.308000564575195,22.892482239535706
51,6.433159589767456,22.933253444463077
52,6.560068607330322,22.963295385173073
53,6.687009811401367,23.005139517209873
54,6.812923908233643,23.029816826026806
55,6.93885350227356,23.084536076492967
56,7.126745939254761,23.104921679783487
57,7.252687454223633,23.156422151643866
58,7.378619909286499,23.18753702035274
59,7.505530595779419,23.21328725668042
60,7.632470607757568,23.2551313910422
61,7.758385181427002,23.27766284816031
62,7.8852057456970215,23.315215276952564
63,8.011626720428467,23.343111367107188
64,8.139554262161255,23.371007457443348
65,8.265501022338867,23.410705740145108
66,8.39241075515747,23.428945491773305
67,8.519338130950928,23.467570848411672
68,8.645265340805054,23.49546693952409
69,8.772193193435669,23.519071324454238
70,8.899120807647705,23.554477902073806
71,9.025107622146606,23.56628009468164
72,9.152031183242798,23.604905452512725
73,9.278435468673706,23.631728617870955
74,9.405362606048584,23.647822517167242
75,9.532296180725098,23.687520802339527
76,9.659222841262817,23.698250068671015
77,9.78513216972351,23.733656647723084
78,9.912060499191284,23.752969327330486
79,10.039002180099487,23.76906322706436
80,10.164915323257446,23.79910517339537
81,10.29184341430664,23.817344926626326
82,10.417772054672241,23.837730533266534
83,10.544718027114868,23.86026199335619
84,10.671628713607788,23.873137113448575
85,10.796555757522583,23.894595647030435
86,10.922497272491455,23.90425198717814
87,11.049430847167969,23.93322100774194
88,11.1753408908844,23.95146076153464
89,11.302267074584961,23.96219002850707
90,11.429194927215576,23.990086122749226
91,11.556142330169678,23.996523682980126
92,11.684049606323242,24.015836363748797
93,11.810537099838257,24.039440751466348
94,11.937485218048096,24.039440751460802
95,12.063392639160156,24.067336846199435
96,12.18893837928772,24.07162855310244
97,12.31684947013855,24.0855766005487
98,12.442776441574097,24.10274342824248
99,12.569724321365356,24.104889281708267
100,12.696644067764282,24.128493669906682
101,12.822650909423828,24.126347816428968
102,12.949592351913452,24.142441717540443
103,13.07651162147522,24.157462691962387
104,13.202420473098755,24.1596085454576
105,13.326369047164917,24.17462951994084
106,13.452278137207031,24.170337812939255
107,13.577207803726196,24.182140007201966
108,13.702154397964478,24.185358787459123
109,13.828064203262329,24.20467146906264
110,13.953993082046509,24.199306835275202
111,14.08091950416565,24.212181956385145
112,14.207847595214844,24.216473663421784
113,14.33179783821106,24.216473663418597
114,14.455897092819214,24.220765370464807
115,14.583829402923584,24.226130004276968
116,14.709750652313232,24.23685927192921
117,14.83690881729126,24.222911223987914
118,14.962856531143188,24.2390051254587
119,15.089765787124634,24.23793219869276
120,15.21669888496399,24.236859271925223
121,15.343619585037231,24.25080731990643
122,15.468549013137817,24.23685927192921
123,15.59547758102417,24.251880246675558
124,15.720405578613281,24.244369759295598
125,15.84744119644165,24.246515612830674
126,15.973370790481567,24.248661466368947
127,16.099898099899292,24.24329683252726
128,16.226825714111328,24.24651561283148
129,16.353765964508057,24.24115097899378
130,16.480698347091675,24.244369759294
131,16.605627298355103,24.237932198691162
132,16.732550382614136,24.242223905758923
133,16.8594651222229,24.24436975929879
134,16.986392498016357,24.234713418392534
135,17.11232352256775,24.237932198691162
136,17.23926067352295,24.236859271926022
137,17.36617660522461,24.228275857807255
138,17.491103410720825,24.23685927192761
139,17.618032932281494,24.22183829723075
140,17.745959758758545,24.22076537046401
141,17.87190008163452,24.217546590179747
142,17.998827695846558,24.215400736656644
143,18.125743865966797,24.214327809896282
144,18.251688718795776,24.201452688789544
145,18.377612113952637,24.212181956377968
146,18.503546237945557,24.195015128251317
147,18.630467653274536,24.1960880550061
148,18.755858659744263,24.198233908519633
149,18.882786512374878,24.184285860710723
150,19.007714986801147,24.187504640967884
151,19.13464379310608,24.17999415369799
152,19.26057267189026,24.182140007200374
153,19.38651466369629,24.168191959440858
154,19.513428688049316,24.155316838470352
155,19.637944221496582,24.16282732569963
156,19.764859437942505,24.149952204744256
157,19.889779806137085,24.154243911731502
158,20.015688180923462,24.147806351258588
159,20.142634391784668,24.14458757102532
160,20.26855969429016,24.1274207431718
161,20.394474029541016,24.13707708382867
162,20.52139973640442,24.136004157087427
163,20.648346424102783,24.119910256000598
164,20.77327036857605,24.119910256006957
165,20.89819884300232,24.105962208450308
166,21.02611231803894,24.110253915384273
167,21.151041984558105,24.094160014388844
168,21.278987169265747,24.094160014389633
169,21.403910636901855,24.0909412341977
170,21.530838012695312,24.07270147982462
171,21.65708613395691,24.084503673820173
172,21.78501534461975,24.067336846201023
173,21.910955667495728,24.069482699649352
174,22.037882804870605,24.064118066028136
175,22.163798332214355,24.045878311770096
176,22.290735483169556,24.051242945368312
177,22.417654752731323,24.04587831176851
178,22.543583869934082,24.04051367817822
179,22.670527458190918,24.03944075146159
180,22.79745578765869,24.023346850731144
181,22.924378156661987,24.030857337739636
182,23.049294471740723,24.013690510321084
183,23.17624068260193,24.017982217167003
184,23.302162170410156,24.012617583609995
185,23.429094791412354,24.00081538980942
186,23.55600333213806,24.005107096646647
187,23.680933237075806,23.989013196042098
188,23.807873964309692,23.99759660968646
189,23.93480634689331,23.995450756272994
190,24.060843229293823,23.980429782411182
191,24.187757968902588,23.98579441592863
192,24.312952995300293,23.97077344209687
193,24.440871477127075,23.97184636879451
194,24.566792011260986,23.96433588189918
195,24.69435691833496,23.95789832171019
196,24.82128405570984,23.956825395014135
197,24.946435928344727,23.952533688228325
198,25.074373960494995,23.957898321710985
199,25.20029067993164,23.95038783483542
200,25.3252170085907,23.949314908151212
201,25.453157663345337,23.946096128062244
202,25.579090118408203,23.931075154362457
203,25.706012964248657,23.938585641200902
204,25.832313299179077,23.930002227670354
205,25.95824408531189,23.93214808105062
206,26.082460641860962,23.92463759422954
207,26.208390474319458,23.924637594220858
208,26.33532977104187,23.92356466753112
209,26.462243795394897,23.910689547285806
210,26.589173078536987,23.918200034099776
211,26.71510124206543,23.908543693914215
212,26.842029094696045,23.9063978405442
213,26.96895456314087,23.909616620603952
214,27.09489679336548,23.894595647030435
215,27.221810340881348,23.905324913860774
216,27.347752571105957,23.898887353770455
217,27.474668264389038,23.902106133812065
218,27.601597785949707,23.898887353764145
219,27.727541208267212,23.89137686698646
220,27.852452039718628,23.898887353759413
221,27.979380130767822,23.88493930690402
222,28.104326486587524,23.89566857372332
223,28.229250192642212,23.88279345354741
224,28.355178356170654,23.88923101362748
225,28.48211097717285,23.884939306908745
226,28.607040405273438,23.88493930690402
227,28.733948707580566,23.889231013626695
228,28.85900568962097,23.878501746837344
229,28.98594617843628,23.8903039403046
230,29.111878871917725,23.87313711345646
231,29.238788843154907,23.88279345355056
232,29.363717555999756,23.877428820155494
233,29.489644765853882,23.879574673511318
234,29.616573095321655,23.874210040124126
235,29.741515398025513,23.87635589347758
236,29.867595434188843,23.883866380225317
237,29.992522954940796,23.872064186770668
238,30.119467973709106,23.876355893480735
239,30.24539089202881,23.870991260094332
240,30.37333035469055,23.877428820154705
241,30.498234510421753,23.869918333420358
242,30.623175382614136,23.877428820155494
243,30.75008988380432,23.873137113450152
244,30.87576675415039,23.872064186777756
245,31.001707792282104,23.87957467351368
246,31.1274094581604,23.868845406744814
247,31.253336191177368,23.872064186781692
248,31.380277633666992,23.86777248007005
249,31.505194425582886,23.874210040123334
250,31.632134675979614,23.868845406743237
251,31.757070779800415,23.876355893482305
252,31.88398241996765,23.87528296680125
253,32.00990676879883,23.8613349200215
254,32.1368350982666,23.872064186773816
255,32.26276087760925,23.86669955339293
256,32.389689922332764,23.872064186780122
257,32.516618728637695,23.869918333418788
258,32.64254593849182,23.859189066679058
259,32.768664836883545,23.875282966802033
260,32.89556074142456,23.86669955339451
261,33.020485162734985,23.875282966803614
262,33.147422790527344,23.868845406749536
263,33.27433204650879,23.873137113453303
264,33.40026044845581,23.874210040124126
265,33.52780556678772,23.865626626719752
266,33.65475249290466,23.877428820157856
267,33.77963185310364,23.867772480068478
268,33.90655970573425,23.881720526873437
269,34.031760692596436,23.8742100401257
270,34.1576886177063,23.877428820155494
271,34.2846302986145,23.884939306911107
272,34.40854501724243,23.884939306905594
273,34.53449463844299,23.878501746832615
274,34.65856671333313,23.88279345354662
275,34.78349494934082,23.880647600191587
276,34.90823936462402,23.884939306908745
277,35.03514790534973,23.888158086943267
278,35.16207671165466,23.87528296680125
279,35.288294553756714,23.89137686698803
280,35.41420888900757,23.87313711344858
281,35.54113507270813,23.888158086943267
282,35.66508412361145,23.886012233584296
283,35.79001235961914,23.88923101362433
284,35.91592335700989,23.88279345354741
285,36.0428626537323,23.87957467351368
286,36.169795513153076,23.888158086944845
287,36.29671812057495,23.88279345355292
288,36.422651529312134,23.886012233587447
289,36.548561334609985,23.879574673511318
290,36.67550754547119,23.88708516026378
291,36.80141639709473,23.89244979367067
292,36.92836308479309,23.89137686698803
293,37.05428409576416,23.896741500394924
294,37.180214643478394,23.88923101362748
295,37.305148124694824,23.901033207134947
296,37.433075189590454,23.893522720347793
297,37.555986404418945,23.901033207127853
298,37.681100606918335,23.89566857371465
299,37.808030128479004,23.902106133808125
300,37.93495774269104,23.895668573713863
301,38.06088662147522,23.90425198718129
302,38.18781590461731,23.90532491386314
303,38.31374168395996,23.897814427075986
304,38.44068384170532,23.904251987176558
305,38.56761622428894,23.896741500393347
306,38.693525075912476,23.90425198717498
307,38.82045531272888,23.905324913859197
308,38.947394371032715,23.897814427083084
309,39.07330942153931,23.91068954728738
310,39.1992392539978,23.903179060491553
311,39.3251838684082,23.90747076723473
312,39.45209288597107,23.91927296077847
313,39.579039573669434,23.90425198717814
314,39.70596361160278,23.917127107404514
315,39.83173990249634,23.90425198718208
316,39.95764899253845,23.912835400670804
317,40.08357501029968,23.91068954728423
318,40.21050524711609,23.908543693915007
319,40.33644986152649,23.922491740842954
320,40.46337819099426,23.911762473970022
321,40.588287115097046,23.91498125403214
322,40.71423578262329,23.905324913859197
323,40.8398642539978,23.91605418071635
324,40.9667911529541,23.917127107406095
325,41.093719244003296,23.91605418071636
326,41.22066521644592,23.9246375942248
327,41.34589600563049,23.914981254033716
328,41.47284245491028,23.917127107404514
329,41.59877157211304,23.909616620599223
330,41.72484016418457,23.919272960780837
331,41.85093545913696,23.91820003409189
332,41.976869106292725,23.91927296077847
333,42.10277819633484,23.9289293009814
334,42.22872066497803,23.92141881415401
335,42.35663390159607,23.92892930097903
336,42.482563495635986,23.91712710740373
337,42.60866618156433,23.926783447599554
338,42.736576795578,23.9289293009814
339,42.86191654205322,23.916054180717936
340,42.988863468170166,23.923564667543747
341,43.114774227142334,23.913908327342398
342,43.241700410842896,23.928929300983764
343,43.36862921714783,23.925710520914546
344,43.49555730819702,23.919272960780052
345,43.62148380279541,23.932148081055352
346,43.74641251564026,23.9182000340911
347,43.87335419654846,23.934293934432468
348,44.00026869773865,23.914981254028977
349,44.12719678878784,23.92463759423112
350,44.25312614440918,23.932148081055352
351,44.37906622886658,23.92463759422165
352,44.50697875022888,23.92678344760034
353,44.63401651382446,23.924637594220073
354,44.76093077659607,23.92034588746663
355,44.887858390808105,23.927856374290077
356,45.0137722492218,23.924637594223228
357,45.140700578689575,23.932148081052986
358,45.267630100250244,23.92571052090981
359,45.391578674316406,23.926783447609807
360,45.518484354019165,23.927856374291657
361,45.644432067871094,23.924637594220073
362,45.77134037017822,23.931075154364034
363,45.898106813430786,23.91820003409189
364,46.02503442764282,23.92892930097903
365,46.150965213775635,23.923564667531906
366,46.27690529823303,23.92678344760034
367,46.403818130493164,23.928929300983768
368,46.529746294021606,23.92249174084217
369,46.65467619895935,23.932148081056933
370,46.78162240982056,23.92034588746663
371,46.9065043926239,23.9310751543664
372,47.033414125442505,23.921418814155583
373,47.16035437583923,23.930002227670354
374,47.28626894950867,23.92892930097903
375,47.413195848464966,23.91927296077847
376,47.539124488830566,23.932148081055352
377,47.66605353355408,23.92463759422954
378,47.79399275779724,23.93000222767272
379,47.921690940856934,23.930002227670354
380,48.04861927032471,23.92571052090981
381,48.1747522354126,23.938585641200902
382,48.301698446273804,23.92249174084217
383,48.42861819267273,23.92785637428929
384,48.55553460121155,23.933221007742723
385,48.68146371841431,23.921418814157164
386,48.80598258972168,23.923564667535068
387,48.9316041469574,23.9235646675327
388,49.05856108665466,23.931075154359295
389,49.18547511100769,23.92034588746663
390,49.31238675117493,23.93107515436325
391,49.43833017349243,23.928929300983768
392,49.565244913101196,23.922491740842954
393,49.69219088554382,23.927856374294816
394,49.81709957122803,23.92785637429245
395,49.94302725791931,23.931075154360876
396,50.06895589828491,23.92141881415401
397,50.194883584976196,23.9289293009814
398,50.32181358337402,23.930002227669558
399,50.44874572753906,23.926783447605864
400,50.57466769218445,23.93429393443405
401,50.70194101333618,23.922491740845327
402,50.828866958618164,23.92463759422165
403,50.95479488372803,23.924637594220858
404,51.0817449092865,23.921418814163474
405,51.20764946937561,23.92678344759876
406,51.33458733558655,23.92356466753112
407,51.46052432060242,23.933221007744304
408,51.58645248413086,23.930002227671924
409,51.713361501693726,23.927856374293235
410,51.839290618896484,23.92785637429245
411,51.96657037734985,23.919272960787943
412,52.09248495101929,23.930002227668773
413,52.2194128036499,23.930002227668773
414,52.3463499546051,23.919272960777683
415,52.472267866134644,23.93429393443878
416,52.5981969833374,23.91927296078084
417,52.723124742507935,23.92892930097903
418,52.85006499290466,23.926783447605864
419,52.97800540924072,23.931075154359295
420,53.105024576187134,23.932148081055352
421,53.23164439201355,23.921418814155583
422,53.35802936553955,23.92892930097903
423,53.484797954559326,23.919272960780052
424,53.6117422580719,23.92678344759876
425,53.73866534233093,23.927856374301125
426,53.86358022689819,23.91605418071636
427,53.99050831794739,23.926783447602705
428,54.11445069313049,23.921418814157164
429,54.2413649559021,23.925710520911387
430,54.36829209327698,23.92571052090981
431,54.49522089958191,23.91927296077847
432,54.62114858627319,23.933221007741142
433,54.747095346450806,23.92034588746663
434,54.87506461143494,23.933221007749044
435,55.000993490219116,23.919272960780052
436,55.127920389175415,23.922491740842958
437,55.254849433898926,23.922491740844535
438,55.38079023361206,23.925710520919278
439,55.506717681884766,23.927856374288496
440,55.63365125656128,23.9235646675327
441,55.759568214416504,23.92571052090981
442,55.88575291633606,23.922491740842954
443,56.01268005371094,23.917127107406095
444,56.13860845565796,23.923564667531906
445,56.26504349708557,23.918200034093466
446,56.389973402023315,23.922491740842954
447,56.51691389083862,23.91927296078084
448,56.64384746551514,23.919272960780052
449,56.77075481414795,23.920345887469004
450,56.89637088775635,23.922491740844535
451,57.023285150527954,23.92678344760192
452,57.15023064613342,23.92141881415401
453,57.2761595249176,23.920345887465846
454,57.402087450027466,23.92678344760034
455,57.52699851989746,23.91605418072109
456,57.65294051170349,23.923564667531906
457,57.78048849105835,23.91283540065897
458,57.90513730049133,23.925710520914546
459,58.0320508480072,23.92141881415401
460,58.15897822380066,23.923564667531906
461,58.284907817840576,23.926783447603498
462,58.41185283660889,23.91498125403214
463,58.538761615753174,23.92356466753112
464,58.66468954086304,23.921418814154798
465,58.79179644584656,23.921418814157164
466,58.91773748397827,23.9235646675327
467,59.04466509819031,23.91390832734871
468,59.17059350013733,23.921418814154794
469,59.29752063751221,23.918200034094255
470,59.423436641693115,23.92571052090981
471,59.55036473274231,23.91927296077847
472,59.67730927467346,23.9117624739716
473,59.80050563812256,23.919272960783204
474,59.927512884140015,23.911762473970807
475,60.05243706703186,23.924637594220073
476,60.17934989929199,23.917127107407673
477,60.30629634857178,23.92463759422007
478,60.43320608139038,23.92356466753112
479,60.560152530670166,23.919272960787943
480,60.68607449531555,23.92892930097903
481,60.811989545822144,23.909616620599223
482,60.93881940841675,23.9235646675327
483,61.065749406814575,23.92141881416505
484,61.19167613983154,23.916054180715562
485,61.31660532951355,23.9289293009814
486,61.44354581832886,23.914981254042395
487,61.56846308708191,23.921418814161107
488,61.694746255874634,23.91820003409189
489,61.820679664611816,23.926783447601917
