,time,temp
0,0.003997325897216797,19.65868305011881
1,0.14090776443481445,19.665120604458593
2,0.26683759689331055,19.66297475300689
3,0.39278626441955566,19.658683050108145
4,0.5146989822387695,19.653318421489544
5,0.6416475772857666,19.66297475300689
6,0.7655739784240723,19.656537198660438
7,0.8905041217803955,19.67906863891135
8,1.014669418334961,19.67155815881638
9,1.1405882835388184,19.693016673402806
10,1.2644855976104736,19.68872497047938
11,1.3904292583465576,19.713402262342807
12,1.5173444747924805,19.7219856682364
13,1.6432762145996094,19.734860777101517
14,1.7690598964691162,19.75846514343961
15,1.8959894180297852,19.762756846423194
16,2.0219712257385254,19.802455099179415
17,2.1476662158966064,19.81103850521962
18,2.2736129760742188,19.849663832582085
19,2.4005253314971924,19.86683064483776
20,2.525454044342041,19.8893620860076
21,2.651383638381958,19.92047693350149
22,2.7780838012695312,19.944081300693984
23,2.904994487762451,19.98592540643667
24,3.0309250354766846,20.004165144943112
25,3.156855821609497,20.05566558343405
26,3.2837977409362793,20.076051173814268
27,3.41072678565979,20.105020170808828
28,3.536644697189331,20.160812313636182
29,3.66257381439209,20.187635459448256
30,3.7893524169921875,20.240208825643805
31,3.915294885635376,20.26917782357648
32,4.042210578918457,20.315313635443868
33,4.167154788970947,20.347501411416417
34,4.295069456100464,20.389345520487012
35,4.420018911361694,20.445137666459097
36,4.546929836273193,20.477325443267244
37,4.673858880996704,20.535263442032186
38,4.798736810684204,20.565305367583527
39,4.925665855407715,20.61895166366382
40,5.048611164093018,20.656504071262788
41,5.174352645874023,20.717660849961458
42,5.301283836364746,20.761650814053215
43,5.427244424819946,20.80671370450434
44,5.554174900054932,20.86143292917592
45,5.680117130279541,20.9000582646053
46,5.807032823562622,20.9633608983247
47,5.932981252670288,21.000913308548675
48,6.0599119663238525,21.049194979250085
49,6.185840845108032,21.106060058694744
50,6.312051773071289,21.15005002626374
51,6.436976432800293,21.214425589280022
52,6.563927173614502,21.251978001432402
53,6.6898345947265625,21.319572344041976
54,6.81684422492981,21.35712475701039
55,6.942315578460693,21.413989840062232
56,7.06925892829895,21.47192784990036
57,7.196526527404785,21.510553190178513
58,7.322450637817383,21.57063705345388
59,7.448174715042114,21.6071165422418
60,7.574122428894043,21.67363796368237
61,7.700033187866211,21.71226330559108
62,7.826962947845459,21.762690835778997
63,7.950893402099609,21.81311836649765
64,8.076462507247925,21.875348086002337
65,8.200406551361084,21.912900503339507
66,8.32532262802124,21.971911445474458
67,8.451272010803223,22.02126605218545
68,8.578181982040405,22.0641831019233
69,8.705114841461182,22.123194045954435
70,8.830530405044556,22.160746465270766
71,8.954890489578247,22.225122041944502
72,9.080822229385376,22.254091051736733
73,9.205767154693604,22.318466629697173
74,9.3307626247406,22.349581492697904
75,9.453693866729736,22.407519514014535
76,9.579625606536865,22.44185315661818
77,9.705229759216309,22.499791179095748
78,9.831160068511963,22.53305189602214
79,9.954109907150269,22.588844066899746
80,10.08102822303772,22.626396489984014
81,10.207951068878174,22.676824030040894
82,10.333881139755249,22.712230601050184
83,10.460809230804443,22.755147657184157
84,10.585753679275513,22.80235641939973
85,10.711688756942749,22.834544212098354
86,10.839044570922852,22.889263460212295
87,10.96495532989502,22.916086621290113
88,11.089709758758545,22.967587091004557
89,11.21563982963562,22.990118546689935
90,11.342570781707764,23.038400237820188
91,11.468511819839478,23.07487973812941
92,11.594446420669556,23.107067532761064
93,11.718780994415283,23.14783873962472
94,11.844725608825684,23.177880681762314
95,11.969641923904419,23.217578962752196
96,12.094572067260742,23.246547978828623
97,12.22114872932434,23.290537966568117
98,12.348064184188843,23.30985064424382
99,12.474993705749512,23.352767706049637
100,12.600924730300903,23.379590869887657
101,12.726855516433716,23.40855988701584
102,12.853801488876343,23.446112316908177
103,12.979726791381836,23.460060362373966
104,13.106751918792725,23.49975864586485
105,13.233668804168701,23.520144251040588
106,13.360598087310791,23.544821562693162
107,13.486545324325562,23.58451984694538
108,13.611427783966064,23.594176186411723
109,13.738356828689575,23.62636398478495
110,13.864798784255981,23.64138495743873
111,13.99071478843689,23.682156169186307
112,14.116645574569702,23.685374949077143
113,14.243141889572144,23.707906408379525
114,14.368090391159058,23.735802501008965
115,14.494340896606445,23.74116713422483
116,14.621272325515747,23.77871956693513
117,14.745801210403442,23.77871956693356
118,14.87203073501587,23.811980293316264
119,14.995956659317017,23.81198029331626
120,15.120892524719238,23.84309516661357
121,15.246818780899048,23.8473868732882
122,15.373752117156982,23.869918333418788
123,15.499825716018677,23.874210040124126
124,15.626766920089722,23.889231013623544
125,15.752724170684814,23.9063978405442
126,15.877654790878296,23.91068954728423
127,16.001585483551025,23.924637594220073
128,16.12631583213806,23.933221007742723
129,16.250246047973633,23.93858564120248
130,16.375176191329956,23.9536066149228
131,16.500119924545288,23.951460761529898
132,16.626038074493408,23.96540880859682
133,16.750091075897217,23.966481735296043
134,16.876012802124023,23.977211002300876
135,17.000142812728882,23.979356855707223
136,17.12709403038025,23.98364856251833
137,17.25300359725952,23.99652368297933
138,17.37894606590271,23.98579441592863
139,17.504862070083618,24.000815389808636
140,17.63138198852539,23.987940269334974
141,17.758311986923218,24.002961243225265
142,17.884267807006836,23.99974246310151
143,18.011165618896484,23.99115904944923
144,18.136083841323853,24.001888316517345
145,18.262752532958984,23.99008612274448
146,18.389686584472656,23.99974246310151
147,18.516616106033325,23.99008612274448
148,18.643545627593994,23.9847214892215
149,18.767457485198975,23.983648562517537
150,18.89239001274109,23.98042978240881
151,19.017318964004517,23.976138075599284
152,19.14224863052368,23.968627588696855
153,19.26719307899475,23.966481735295247
154,19.39410924911499,23.952533688228325
155,19.52003836631775,23.962190028499958
156,19.64598274230957,23.937512714508
157,19.77135705947876,23.94502320136303
158,19.89827609062195,23.92356466753585
159,20.02521586418152,23.92571052090981
160,20.15015411376953,23.910689547285013
161,20.277082681655884,23.902106133808125
162,20.404003143310547,23.906397840545782
163,20.529949426651,23.880647600189224
164,20.655853986740112,23.879574673510525
165,20.78278350830078,23.859189066675913
166,20.907713651657104,23.860261993349887
167,21.03264284133911,23.839876386602675
168,21.158573389053345,23.837730533267326
169,21.284934997558594,23.82163663328051
170,21.410309553146362,23.808761513332893
171,21.537256956100464,23.80232395337245
172,21.664166927337646,23.77120908036671
173,21.789944410324097,23.774427860322586
174,21.91487455368042,23.75189640068088
175,22.041817665100098,23.745458840804424
176,22.16587519645691,23.722927381315642
177,22.29080557823181,23.718635674753287
178,22.418734788894653,23.705760555107748
179,22.543683528900146,23.682156169186307
180,22.668594360351562,23.67464568278869
181,22.796501636505127,23.648895443791783
182,22.921446561813354,23.65640593014719
183,23.04829168319702,23.622072278325824
184,23.17420721054077,23.616707645247622
185,23.300151109695435,23.589884479979123
186,23.426411390304565,23.580228140522138
187,23.553340435028076,23.57057180108619
188,23.678879499435425,23.54052985630885
189,23.80589485168457,23.54052985630885
190,23.932836055755615,23.509414985147497
191,24.059046030044556,23.502977425623136
192,24.185975551605225,23.493321086356822
193,24.312917709350586,23.45469572949344
194,24.438847303390503,23.460060362370868
195,24.563764333724976,23.42572671207011
196,24.689696073532104,23.42465378549928
197,24.814141273498535,23.392465988591262
198,24.941129684448242,23.396757694830434
199,25.065074682235718,23.366715751228156
200,25.191991806030273,23.361351118461474
201,25.31893301010132,23.33989258746434
202,25.443864107131958,23.322725762741868
203,25.569781064987183,23.308777717703926
204,25.696722745895386,23.280881627756095
205,25.824180603027344,23.275516995093632
206,25.949562072753906,23.245475052304133
207,26.076491594314575,23.237964566637373
208,26.202407121658325,23.22830822794318
209,26.328346729278564,23.200412138495835
210,26.454267263412476,23.195047505932628
211,26.58121156692505,23.163932637174618
212,26.706126928329468,23.168224343196467
213,26.832075834274292,23.132817768633007
214,26.95898699760437,23.129598989139435
215,27.085981369018555,23.118869724182588
216,27.21292495727539,23.088827782439726
217,27.33984065055847,23.084536076492963
218,27.465784311294556,23.055567061456582
219,27.591932773590088,23.054494134978878
220,27.7188618183136,23.03196267897229
221,27.845810413360596,23.009431223080995
222,27.970723390579224,23.00835829661169
223,28.096678972244263,22.97831635560307
224,28.220609188079834,22.981535134986583
225,28.345540523529053,22.950420267700707
226,28.4718918800354,22.949347341251208
227,28.59782075881958,22.924670032867848
228,28.724751234054565,22.92574295931583
229,28.85068154335022,22.89891979818025
230,28.977609157562256,22.89248223953267
231,29.102553606033325,22.8796071222618
232,29.229469060897827,22.861367372855852
233,29.354655504226685,22.85814859355597
234,29.48156976699829,22.829179579970052
235,29.6065194606781,22.832398359246426
236,29.732502460479736,22.805575198659444
237,29.859434604644775,22.804502272238786
238,29.983363389968872,22.783043743889117
239,30.109565258026123,22.78626252313672
240,30.23550820350647,22.7658769212811
241,30.36042547225952,22.755147657184914
242,30.485356092453003,22.74012668749227
243,30.612292289733887,22.72725157065148
244,30.738889455795288,22.734762055469105
245,30.86569118499756,22.701501337080828
246,30.991621494293213,22.716522306648184
247,31.116565465927124,22.686480367560236
248,31.242483139038086,22.68862622034868
249,31.369426012039185,22.67575110365044
250,31.49534773826599,22.659657207831316
251,31.621272802352905,22.663948913376558
252,31.745704650878906,22.64034453292139
253,31.871615409851074,22.647855017600346
254,31.998563766479492,22.62639648998251
255,32.123494386672974,22.627469416361677
256,32.2478289604187,22.6070838152215
257,32.37571334838867,22.609229667964037
258,32.50164246559143,22.588844066900503
259,32.62757229804993,22.595281625119114
260,32.7545280456543,22.590989919635533
261,32.88080883026123,22.57167724501572
262,33.00672173500061,22.57811480321482
263,33.132651805877686,22.55772920228565
264,33.258772134780884,22.5630938340996
265,33.385700941085815,22.549145791395024
266,33.51063275337219,22.550218717755413
267,33.63758134841919,22.542708233239424
268,33.762431144714355,22.536270675089828
269,33.890360832214355,22.536270675093576
270,34.0162718296051,22.5212497061133
271,34.14320230484009,22.529833116950716
272,34.266152143478394,22.510520442588806
273,34.392061710357666,22.5201767797589
274,34.51799178123474,22.503009958134985
275,34.64292359352112,22.51266629529086
276,34.76735162734985,22.498718252739106
277,34.89428091049194,22.5073016635346
278,35.01621174812317,22.489061915612417
279,35.143142223358154,22.500864105435923
280,35.26908493041992,22.484770210229264
281,35.39300346374512,22.496572400041543
282,35.51694893836975,22.48047850485134
283,35.64287781715393,22.495499473694636
284,35.76582360267639,22.480478504852087
285,35.892762422561646,22.49228069465166
286,36.01769161224365,22.475113873135477
287,36.1430184841156,22.489061915611668
288,36.26794791221619,22.470822167762783
289,36.3958957195282,22.477259725818083
290,36.52282381057739,22.48584313657393
291,36.64873456954956,22.469749241418864
292,36.77506160736084,22.48691606292009
293,36.902990102767944,22.47618679947491
294,37.02914619445801,22.48047850485134
295,37.15608048439026,22.486916062922337
296,37.28299140930176,22.46867631507719
297,37.40892195701599,22.485843136574676
298,37.535868883132935,22.47725972582032
299,37.66077971458435,22.472968020448384
300,37.7877094745636,22.478332652162006
301,37.91463875770569,22.478332652161257
302,38.040587186813354,22.489061915611668
303,38.16551852226257,22.478332652162752
304,38.292428970336914,22.49442654734772
305,38.41837692260742,22.48477021022852
306,38.544301986694336,22.494426547346226
307,38.669219970703125,22.485843136575422
308,38.79318642616272,22.504082884484887
309,38.917080879211426,22.489061915614666
310,39.04302930831909,22.510520442588057
311,39.16695547103882,22.49764532639295
312,39.29287385940552,22.513739221645253
313,39.416802406311035,22.500864105437422
314,39.54475021362305,22.515885074347306
315,39.67074918746948,22.509447516236655
316,39.79467964172363,22.527687264239677
317,39.920597076416016,22.515885074347306
318,40.04624390602112,22.534124822376537
319,40.17217254638672,22.52661433788528
320,40.2971031665802,22.530906043307354
321,40.42403507232666,22.543781159596822
322,40.54898142814636,22.535197748733182
323,40.674893379211426,22.552364570478446
324,40.801822900772095,22.538416527807605
325,40.92775225639343,22.555583349564866
326,41.05368161201477,22.549145791395024
327,41.17962598800659,22.565239686827127
328,41.305543422698975,22.565239686830886
329,41.432485580444336,22.55987505501468
330,41.558401346206665,22.574896024114896
331,41.682331562042236,22.566312613192018
332,41.80982279777527,22.59098991963628
333,41.93275237083435,22.574896024117145
334,42.058701515197754,22.59850040423856
335,42.18362641334534,22.586698214157206
336,42.310555934906006,22.601719183349744
337,42.43728685379028,22.599573330604198
338,42.562793493270874,22.61352137346114
339,42.68872356414795,22.610302594337938
340,42.8144097328186,22.61244844708649
341,42.94132089614868,22.628542342740086
342,43.067264556884766,22.615667226211947
343,43.194180965423584,22.63497990101731
344,43.32110953330994,22.627469416363933
345,43.447043657302856,22.640344532922146
346,43.57197070121765,22.64356331206715
347,43.69690179824829,22.656438428674267
348,43.824480056762695,22.65965720783282
349,43.950255393981934,22.653219649519478
350,44.075167179107666,22.673605250870295
351,44.20009756088257,22.65965720782981
352,44.32502865791321,22.67896988282104
353,44.449957847595215,22.67253232448134
354,44.57489037513733,22.695063778707215
355,44.699833154678345,22.683261588386618
356,44.82686948776245,22.70150133707706
357,44.95381021499634,22.691844999524555
358,45.07972288131714,22.706865969060985
359,45.20666980743408,22.715449380244905
360,45.33258080482483,22.709011821854702
361,45.4575297832489,22.720814012243913
362,45.58247470855713,22.721886938644168
363,45.70837354660034,22.73154327626155
364,45.83471179008484,22.725105717847196
365,45.96165895462036,22.741199613896296
366,46.08857011795044,22.73476205546986
367,46.213518381118774,22.751928877959987
368,46.34044313430786,22.754074730776356
369,46.46664047241211,22.74549131951921
370,46.593552350997925,22.764803994870274
371,46.72014784812927,22.754074730777862
372,46.84589385986328,22.77231447975438
373,46.97284960746765,22.769095700515095
374,47.0982940196991,22.771241553339014
375,47.22520995140076,22.783043743889117
376,47.35115313529968,22.775533258989885
377,47.47793006896973,22.793773008052597
378,47.604873180389404,22.784116670305238
379,47.73180294036865,22.79806471372314
380,47.85773754119873,22.80021056656068
381,47.98365044593811,22.79806471372314
382,48.110597133636475,22.816304462874392
383,48.23698925971985,22.806648125080862
384,48.36193919181824,22.819523242143948
385,48.48884892463684,22.813085683607866
386,48.61379313468933,22.8259608006914
387,48.73896837234497,22.819523242143948
388,48.86591672897339,22.831325432820467
389,48.99282693862915,22.840981770666264
390,49.11977505683899,22.828106653541052
391,49.246686697006226,22.8484922556753
392,49.3726167678833,22.836690064956343
393,49.499563455581665,22.83883591780903
394,49.62693762779236,22.851711034968346
395,49.75317907333374,22.846346402811996
396,49.88010358810425,22.858148593559008
397,50.00703239440918,22.85600274069116
398,50.1329505443573,22.85600274069116
399,50.25887846946716,22.87209663720194
400,50.38482689857483,22.85600274069116
401,50.50974154472351,22.879607122259525
402,50.63668203353882,22.86673200502586
403,50.76298499107361,22.881752975142557
404,50.88986897468567,22.86995078433105
405,51.01581859588623,22.874242490074344
406,51.14330458641052,22.886044680891157
407,51.268248319625854,22.87531541651092
408,51.39322781562805,22.891409313090772
409,51.516698360443115,22.881752975137243
410,51.643627405166626,22.897846871739112
411,51.770089864730835,22.887117607330776
412,51.89663505554199,22.897846871737592
413,52.02355980873108,22.892482239530384
414,52.150476932525635,22.894628092413424
415,52.276424169540405,22.90535735683847
416,52.40033555030823,22.894628092412663
417,52.527265548706055,22.904284430394295
418,52.6521954536438,22.893555165974565
419,52.77790975570679,22.910721989063152
420,52.903852462768555,22.897846871737592
421,53.02978301048279,22.91179491550809
422,53.15571737289429,22.897846871739112
423,53.281641721725464,22.9160866212886
424,53.40855813026428,22.912867841951506
425,53.53455209732056,22.90321150395392
426,53.661503076553345,22.91823247418835
427,53.78841161727905,22.906430283285687
428,53.91434097290039,22.9214512535262
429,54.04127597808838,22.919305400630243
430,54.16621375083923,22.907503209726823
431,54.293142318725586,22.92037832707594
432,54.418073654174805,22.910721989063912
433,54.54501485824585,22.927888812215585
434,54.670944690704346,22.908576136170996
435,54.79687809944153,22.924670032867848
436,54.921810150146484,22.912867841951506
437,55.047280073165894,22.924670032867848
438,55.1731915473938,22.91823247418227
439,55.29812169075012,22.923597106419113
440,55.42440700531006,22.919305400628723
441,55.5503511428833,22.91394076839644
442,55.67628073692322,22.916086621289352
443,55.803215742111206,22.91179491550581
444,55.930145025253296,22.923597106420633
445,56.05707383155823,22.908576136170996
446,56.18200135231018,22.923597106420633
447,56.30900573730469,22.924670032867848
448,56.43493461608887,22.910721989061628
449,56.559866428375244,22.9203783270767
450,56.68378210067749,22.9150136948429
451,56.80954909324646,22.92145125352544
452,56.934478521347046,22.91179491550581
453,57.06145977973938,22.919305400630247
454,57.18839454650879,22.904284430395055
455,57.31430506706238,22.91501369484442
456,57.44123435020447,22.912867841952263
457,57.56718301773071,22.91179491550581
458,57.6930935382843,22.91394076839644
459,57.82003664970398,22.902138577508218
460,57.94697093963623,22.91394076839644
461,58.07176494598389,22.904284430394295
462,58.198498487472534,22.913940768396444
463,58.32443141937256,22.902138577508225
464,58.45037055015564,22.907503209726062
465,58.57730031013489,22.91715954773581
466,58.70300006866455,22.89891979818025
467,58.82993221282959,22.907503209726823
468,58.956857681274414,22.902138577508218
469,59.08380675315857,22.90321150395164
470,59.20971727371216,22.90428443039429
471,59.33664584159851,22.891409313093046
472,59.4635751247406,22.907503209727583
473,59.58952450752258,22.892482239531144
474,59.715455055236816,22.906430283285687
475,59.83938455581665,22.893555165971527
476,59.96429657936096,22.90213857750974
477,60.08922791481018,22.88497175445154
478,60.21517562866211,22.897846871737592
479,60.34108877182007,22.887117607330776
480,60.468015909194946,22.89033638665419
481,60.59194755554199,22.883898828012683
482,60.71889567375183,22.881752975136482
483,60.843822717666626,22.860294446422312
484,60.971396684646606,22.878534195822184
485,61.096343755722046,22.88926346021153
486,61.2232563495636,22.873169563640037
487,61.34918427467346,22.882825901576854
488,61.475114583969116,22.87531541651244
489,61.601043939590454,22.874242490074344
