,time,temp
0,0.004996061325073242,23.793740540112015
1,0.14191913604736328,23.80232395337245
2,0.26784777641296387,23.803396880036193
3,0.39577341079711914,23.815199073300416
4,0.5217030048370361,23.80125102671578
5,0.6486327648162842,23.819490779952247
6,0.7755577564239502,23.821636633278942
7,0.9014885425567627,23.83129297326599
8,1.0274155139923096,23.855970286661083
9,1.1523442268371582,23.867772480068478
10,1.2762725353240967,23.907470767229995
11,1.4032196998596191,23.938585641200902
12,1.5291292667388916,23.99330490286586
13,1.6560571193695068,24.027638557586574
14,1.782984972000122,24.10488928171066
15,1.905916690826416,24.142441717542834
16,2.0328433513641357,24.229348784570007
17,2.1597702503204346,24.293724390900394
18,2.282700300216675,24.38277731457626
19,2.4076287746429443,24.449298776837196
20,2.532559633255005,24.548008045316823
21,2.656501293182373,24.628477559350447
22,2.7834160327911377,24.736843173981757
23,2.910346031188965,24.8355524491172
24,3.035668134689331,24.951428557648832
25,3.1616158485412598,25.05442954568327
26,3.287806749343872,25.166013952235428
27,3.41473650932312,25.302275683502273
28,3.5406761169433594,25.402057898985927
29,3.667590379714966,25.54690305476604
30,3.7945196628570557,25.66385211017395
31,3.919466733932495,25.805478493652455
32,4.046389818191528,25.94066731881386
33,4.171323299407959,26.070491512277417
34,4.29743218421936,26.223920109905148
35,4.424360036849976,26.348379675904457
36,4.550288438796997,26.516829267054742
37,4.676198482513428,26.659528607782455
38,4.803126335144043,26.824759429764168
39,4.930647134780884,26.97496927390683
40,5.055719614028931,27.12839790634554
41,5.182635068893433,27.298993385829537
42,5.309579372406006,27.447057392947652
43,5.4355034828186035,27.626236307670915
44,5.561431407928467,27.780737893519824
45,5.688369274139404,27.9545521850399
46,5.814274072647095,28.12192891768945
47,5.939216613769531,28.295743224795334
48,6.065134048461914,28.467411684112776
49,6.190078496932983,28.631569655679407
50,6.317001104354858,28.81718619431387
51,6.443934679031372,28.984562965430335
52,6.569844961166382,29.170179521754367
53,6.696773052215576,29.34184802150099
54,6.822713851928711,29.528537524130538
55,6.949646472930908,29.712008251580468
56,7.076565504074097,29.881530920309046
57,7.201624631881714,30.075730949373565
58,7.327566146850586,30.24418070688721
59,7.4534995555877686,30.444818326570466
60,7.580706834793091,30.61755981573583
61,7.706634044647217,30.80639524217537
62,7.833562612533569,30.990938964219925
63,7.958504676818848,31.17548269605544
64,8.085432767868042,31.3707557253456
65,8.211366176605225,31.53813261640566
66,8.338907480239868,31.739843239591025
67,8.465854167938232,31.920095295941024
68,8.592782258987427,32.10893079383042
69,8.718711137771606,32.29991216041686
70,8.845633029937744,32.48660182141884
71,8.96954870223999,32.674364422051866
72,9.093478202819824,32.84817895324329
73,9.219420433044434,33.052035513837744
74,9.346681594848633,33.21726663013274
75,9.473591566085815,33.42756079022794
76,9.598519325256348,33.59922950243425
77,9.725465774536133,33.79664853273448
78,9.851375341415405,33.97260898299433
79,9.977317810058594,34.1625175285722
80,10.104244709014893,34.355644874671086
81,10.230488538742065,34.53160535580624
82,10.355429410934448,34.72580565429468
83,10.482363939285278,34.897474436447276
84,10.606273174285889,35.099185267521776
85,10.73222017288208,35.265489420006034
86,10.859128952026367,35.46183562444439
87,10.984058856964111,35.63672323785066
88,11.110999584197998,35.83306946599835
89,11.237759113311768,36.0197593339943
90,11.363686800003052,36.189282327519166
91,11.486635684967041,36.37382635659401
92,11.612545251846313,36.55407867498591
93,11.73847508430481,36.747206171011406
94,11.86240553855896,36.91994799749904
95,11.989332437515259,37.1109296558804
96,12.115259885787964,37.27508805748748
97,12.241188764572144,37.473580254677415
98,12.368115186691284,37.63559281478058
99,12.494044780731201,37.8319391745181
100,12.620972156524658,38.01004571997552
101,12.747919797897339,38.18815227640164
102,12.871838808059692,38.37376936200036
103,12.996759414672852,38.54221955990799
104,13.121705770492554,38.72032614940117
105,13.248871326446533,38.889849299163316
106,13.375810861587524,39.07975815622295
107,13.501720190048218,39.241770807078346
108,13.628661870956421,39.43167968788417
109,13.755576848983765,39.60549460705001
110,13.882782697677612,39.765361424989315
111,14.008726358413696,39.959562068590024
112,14.135639190673828,40.122647702480265
113,14.260581254959106,40.30290025645683
114,14.385496377944946,40.45847538698461
115,14.510438680648804,40.64194675920608
116,14.634443521499634,40.79323018070147
117,14.760384321212769,40.96919105037514
118,14.887317895889282,41.12905794801211
119,15.013253688812256,41.3071647042267
120,15.13916826248169,41.473469216203085
121,15.266096353530884,41.626898549340055
122,15.391830921173096,41.79642187877579
123,15.518744945526123,41.95414296083044
124,15.645686626434326,42.126885109147466
125,15.78261423110962,42.29748140337993
126,15.909524202346802,42.46915064150091
127,16.034497022628784,42.61185070428242
128,16.160015106201172,42.78137409730263
129,16.28671383857727,42.92407417723272
130,16.413644552230835,43.096816389797254
131,16.5385901927948,43.23629768790888
132,16.665517568588257,43.4036752556219
133,16.791428565979004,43.56354230168322
134,16.91736936569214,43.70409655851472
135,17.042297840118408,43.86503655679272
136,17.169212579727173,44.01095549740355
137,17.29507303237915,44.18369778358202
138,17.422003984451294,44.316741540027714
139,17.548930168151855,44.4809003782601
140,17.674857139587402,44.628965221991464
141,17.801798820495605,44.779175941998524
142,17.928713083267212,44.94440774450651
143,18.054641246795654,45.07208687215641
144,18.18057155609131,45.23624576027863
145,18.305517435073853,45.36714370504328
146,18.432433366775513,45.523792074355924
147,18.55936861038208,45.66863817817698
148,18.685301780700684,45.808119619617464
149,18.812211513519287,45.96047628017174
150,18.93815279006958,46.07957198627715
151,19.06306743621826,46.23514746704735
152,19.19001007080078,46.366045465538626
153,19.315982580184937,46.5141104232231
154,19.442901134490967,46.653591913463245
155,19.567843437194824,46.79200047720784
156,19.693771362304688,46.927190244880315
157,19.82069969177246,47.05916121597077
158,19.945614099502563,47.21044502113006
159,20.072561979293823,47.32524904993958
160,20.19948959350586,47.474387002240086
161,20.324485301971436,47.598847458873436
162,20.451399087905884,47.74262075319693
163,20.57732892036438,47.87459176993561
164,20.704269647598267,47.993687571925946
165,20.831185817718506,48.14067969629469
166,20.957112073898315,48.25441083539538
167,21.082385301589966,48.40247591163592
168,21.208299160003662,48.51942586986247
169,21.335148334503174,48.650323995273546
170,21.461076021194458,48.78658680586882
171,21.58700942993164,48.90568265483211
172,21.712944507598877,49.047310158943674
173,21.83784770965576,49.159968407130314
174,21.96478843688965,49.300522991242495
175,22.08871555328369,49.40245189355535
176,22.213653564453125,49.543006492680874
177,22.34057593345642,49.651373021633574
178,22.46748995780945,49.78656295613086
179,22.59295082092285,49.89063775249828
180,22.718865394592285,50.02153595683978
181,22.842785120010376,50.13204838121097
182,22.967713117599487,50.259727790911654
183,23.09465479850769,50.37453197225911
184,23.220583200454712,50.48933615952287
185,23.346498489379883,50.60843209837532
186,23.47242546081543,50.71679867891773
187,23.598355531692505,50.84662399528434
188,23.722283363342285,50.936750665657
189,23.84921145439148,51.0676489315894
190,23.975917100906372,51.165286167806094
191,24.100841999053955,51.284382143141904
192,24.227761030197144,51.38523819939004
193,24.35354518890381,51.501115376134265
194,24.480475425720215,51.61699255904037
195,24.604405879974365,51.722140378494636
196,24.7313334941864,51.83479876211852
197,24.8572781085968,51.927071347355565
198,24.983187198638916,52.05153204995338
199,25.109134435653687,52.142731707274834
200,25.23605728149414,52.26290067338617
201,25.36158847808838,52.3648297124089
202,25.48751664161682,52.47856106691887
203,25.614431619644165,52.58800067789657
204,25.74037742614746,52.68563798261014
205,25.864909648895264,52.79829641667636
206,25.99183464050293,52.88949610575781
207,26.11876392364502,53.00108161300478
208,26.24569058418274,53.0944271860716
209,26.37110686302185,53.202793890992375
210,26.49801254272461,53.30257709944245
211,26.625564575195312,53.39484974800956
212,26.751479387283325,53.510727033320016
213,26.8784077167511,53.59548912568734
214,27.004334688186646,53.70492879431043
215,27.130264043807983,53.80042027453597
216,27.25719118118286,53.88732825470687
217,27.38411855697632,53.99676793858027
218,27.510048627853394,54.08260298876205
219,27.635989665985107,54.19204268288193
220,27.760923385620117,54.27680480286671
221,27.886847019195557,54.3830256922903
222,28.013766765594482,54.469933696776465
223,28.139708757400513,54.56542521208661
224,28.266759157180786,54.66628142405672
225,28.392584085464478,54.75211650196907
226,28.5185124874115,54.85082684597576
227,28.645439863204956,54.93666193156229
228,28.771387100219727,55.04288285495549
229,28.89829659461975,55.12013443906497
230,29.02422595024109,55.21026129086997
231,29.15115237236023,55.31326341208864
232,29.276081323623657,55.37871267931397
233,29.402010917663574,55.47420423690689
234,29.54394268989563,55.567549921128816
235,29.667858362197876,55.66304148759976
236,29.794787406921387,55.73278252211246
237,29.921714544296265,55.83256585260668
238,30.0486421585083,55.90767158848788
239,30.175583600997925,56.002090231836696
240,30.301498889923096,56.09114418358989
241,30.42743968963623,56.16303111137541
242,30.55336833000183,56.26388740244409
243,30.68028450012207,56.33470139710192
244,30.807226419448853,56.429120060472286
245,30.933138608932495,56.50637169746978
246,31.060067415237427,56.59113391372408
247,31.18600869178772,56.683406710189026
248,31.31312370300293,56.75851247790639
249,31.4390709400177,56.85614998017836
250,31.565999746322632,56.928036935455
251,31.692925691604614,57.00743447117979
252,31.818849086761475,57.09219670877452
253,31.94578218460083,57.15871897373801
254,32.072709798812866,57.25742943552419
255,32.197620153427124,57.3228787661738
256,32.324100971221924,57.40978689711351
257,32.449546813964844,57.476309172768325
258,32.57647347450256,57.558925550505265
259,32.702420711517334,57.64154193170903
260,32.82933020591736,57.70591833505784
261,32.95527720451355,57.79926412367995
262,33.08120107650757,57.85398407078731
263,33.208115339279175,57.95054868709065
264,33.33389163017273,58.00956039940776
265,33.45982003211975,58.094322680204755
266,33.584763526916504,58.16728262106736
267,33.710766553878784,58.242388445385906
268,33.836695432662964,58.32500485551681
269,33.963605642318726,58.38938128140643
270,34.090545415878296,58.46448711433134
271,34.21649432182312,58.531009425921106
272,34.3431921005249,58.61255290776995
273,34.46934747695923,58.679075224457755
274,34.59633541107178,58.74667048407928
275,34.722277879714966,58.81963044951493
276,34.849191665649414,58.87649630684144
277,34.975133419036865,58.964477447900705
278,35.099350452423096,59.01490566473424
279,35.225268840789795,59.09752210789563
280,35.3505437374115,59.14795032821082
281,35.477471113204956,59.226275013454426
282,35.603508949279785,59.28528676472898
283,35.73043704032898,59.35395498670334
284,35.85736441612244,59.42584203420036
285,35.98329281806946,59.47734320423535
286,36.10822319984436,59.552449079691854
287,36.23516368865967,59.605023194273635
288,36.3607816696167,59.68763966299935
289,36.48871397972107,59.74235966372514
290,36.61564016342163,59.803517313476284
291,36.741567850112915,59.87433143669418
292,36.86749792098999,59.92368673626362
293,36.99342584609985,59.99771968803462
294,37.11937189102173,60.052439697745505
295,37.24414134025574,60.121107947437196
296,37.37107062339783,60.17368207780081
297,37.498011350631714,60.242350331921344
298,37.624924659729004,60.3110185885421
299,37.75086736679077,60.36251978267675
300,37.87678337097168,60.430115102069635
301,38.00000214576721,60.47947041619622
302,38.12694478034973,60.558868098167096
303,38.252853870391846,60.59749399872655
304,38.37978219985962,60.666162268339036
305,38.50372505187988,60.71659053045102
306,38.629640340805054,60.784185862660706
307,38.75556826591492,60.83676001159602
308,38.88151574134827,60.902209464400656
309,39.00744390487671,60.958002442381336
310,39.1343719959259,61.00521188659159
311,39.259506940841675,61.08031782303307
312,39.38543391227722,61.11787079239467
313,39.511383056640625,61.194049675429476
314,39.63629126548767,61.23482147327597
315,39.76123929023743,61.29705211379764
316,39.88816213607788,61.34855333513115
317,40.0130774974823,61.41292986381366
318,40.13901901245117,61.456920493037074
319,40.2659330368042,61.52558879440335
320,40.39188075065613,61.57816296436459
321,40.51780891418457,61.62966419353502
322,40.64373803138733,61.68974896273114
323,40.77066493034363,61.728374886813995
324,40.89657640457153,61.794897313514525
325,41.02316427230835,61.84103383667982
326,41.14910674095154,61.9011186127689
327,41.276111364364624,61.95905750586518
328,41.402034759521484,61.995537550603366
329,41.527968406677246,62.060987044467886
330,41.65487837791443,62.10068591893001
331,41.780805826187134,62.163989531328355
332,41.9077353477478,62.206907235902975
333,42.03367590904236,62.26055436804088
334,42.16158866882324,62.319566215212745
335,42.28751730918884,62.35497332443291
336,42.41344666481018,62.42471460218447
337,42.539389848709106,62.46012171344869
338,42.66632080078125,62.51591473866629
339,42.79322910308838,62.56419716569834
340,42.91915845870972,62.60604193684066
341,43.04510021209717,62.662907909425066
342,43.17801117897034,62.71226328330428
343,43.31095480918884,62.7583998296651
344,43.43475818634033,62.80560932018364
345,43.561681270599365,62.85496469795078
346,43.684611320495605,62.89573653277306
347,43.81154012680054,62.946164856063795
348,43.93645405769348,62.986936692946614
349,44.06240367889404,63.03629207566245
350,44.189329385757446,63.07706391457988
351,44.31524085998535,63.12963812928214
352,44.44118118286133,63.16289936794877
353,44.567110776901245,63.22942184713355
354,44.69202423095703,63.254099541638766
355,44.81795334815979,63.307746704789565
356,44.94190073013306,63.34315383335412
357,45.06733202934265,63.40538454584355
358,45.194273471832275,63.43757284625961
359,45.32118844985962,63.47405292075294
360,45.44811701774597,63.534137750968505
361,45.57306265830994,63.565253110255924
362,45.69797325134277,63.614608508863924
363,45.82491445541382,63.6521615304476
364,45.95182991027832,63.70473576200482
365,46.078770875930786,63.74121584195227
366,46.203824520111084,63.78091475332993
367,46.33075261116028,63.8281242707163
368,46.457698345184326,63.86245846595865
369,46.58360767364502,63.918251534647126
370,46.710535526275635,63.94185629501337
371,46.83748197555542,63.99335759140929
372,46.96240592002869,64.022327071294
373,47.087334632873535,64.0695365950796
374,47.215248346328735,64.11352728882859
375,47.34104895591736,64.14142382689803
376,47.46797156333923,64.1929251290922
377,47.59488534927368,64.21760283692045
378,47.72081470489502,64.2680311974709
379,47.84674549102783,64.29485479409142
380,47.973684787750244,64.33777254953806
381,48.100183963775635,64.38176324994086
382,48.22712326049805,64.40965979223013
383,48.35304856300354,64.45686932633966
384,48.47900319099426,64.48369292583739
385,48.60390877723694,64.53197540593787
386,48.73182392120361,64.55879900655898
387,48.85776448249817,64.59849793624001
388,48.9836790561676,64.64034275497863
389,49.10962128639221,64.65750986038843
390,49.23653531074524,64.71223001000747
391,49.36253547668457,64.73476183681416
392,49.48748445510864,64.78304432379869
393,49.6133930683136,64.8012843747825
394,49.73933935165405,64.84527508676207
395,49.86524939537048,64.86673397104921
396,49.991196632385254,64.90750585192633
397,50.11812353134155,64.9418400681461
398,50.24404716491699,64.96329895360846
399,50.36878442764282,65.01158144687948
400,50.495712757110596,65.0373321105025
401,50.62365365028381,65.08454166146304
402,50.75058150291443,65.1081464374268
403,50.876556634902954,65.1446265463449
404,51.003485679626465,65.18754432252356
405,51.130415201187134,65.20363848887443
406,51.256481409072876,65.25406687769176
407,51.382410287857056,65.26801515570176
408,51.50812864303589,65.31737060188726
409,51.633466958999634,65.34526715904369
410,51.760393381118774,65.3774554947777
411,51.88632798194885,65.41500855388858
412,52.01325273513794,65.44290511262088
413,52.139177560806274,65.4793852285452
414,52.264875650405884,65.50513589906198
415,52.39181923866272,65.55556429661479
416,52.51774764060974,65.57702318962389
417,52.644675731658936,65.60921152964947
418,52.76858687400818,65.64247281496797
419,52.89452838897705,65.67251526677262
420,53.01944327354431,65.70899538751345
421,53.14739012718201,65.73796489571893
422,53.27351641654968,65.78302857609974
423,53.40043878555298,65.79804980314651
424,53.52735352516174,65.84311348509263
425,53.652284383773804,65.86779121617823
426,53.77818727493286,65.90641723076406
427,53.90611433982849,65.94611619108451
428,54.03202843666077,65.95577269509405
429,54.15896987915039,65.99976343622058
430,54.28489279747009,66.02229527967465
431,54.41082811355591,66.05984835275707
432,54.536760330200195,66.08345314196538
433,54.66367030143738,66.11671443640003
434,54.7895987033844,66.1542675115291
435,54.91654443740845,66.17036168684467
436,55.04247236251831,66.2111335982902
437,55.16840100288391,66.23581133464492
438,55.294994592666626,66.27443735745732
439,55.42292237281799,66.30769865559446
440,55.54885530471802,66.32379283233095
441,55.67476487159729,66.36992947316617
442,55.799707889556885,66.38173186985003
443,55.9266414642334,66.42250378631093
444,56.05323767662048,66.43859796413523
445,56.180169343948364,66.47936988194246
446,56.305333614349365,66.49868289598271
447,56.43225955963135,66.52657947220408
448,56.558202028274536,66.564132556295
449,56.68311929702759,66.58559146185901
450,56.809046030044556,66.62421749255199
451,56.9349730014801,66.64031167226669
452,57.06192088127136,66.68215654022823
453,57.18882966041565,66.69395893906646
454,57.315758228302,66.72614729995585
455,57.441686391830444,66.7637003884332
456,57.567615032196045,66.77979456945093
457,57.694560527801514,66.81520176824176
458,57.82146883010864,66.8270041680019
459,57.948415994644165,66.86563020415139
460,58.07532477378845,66.88923500446325
461,58.20112180709839,66.9106939141001
462,58.328710317611694,66.94288227907512
463,58.454652070999146,66.95361173421274
464,58.58056569099426,66.99652955538981
465,58.70749473571777,67.01262373861341
466,58.83142447471619,67.03944737766035
467,58.9593710899353,67.07378163626356
468,59.08627915382385,67.08772992900579
469,59.21120834350586,67.12635597106527
470,59.33714962005615,67.1327936448299
471,59.463072061538696,67.17571147053943
472,59.59001040458679,67.18536798147309
473,59.71593403816223,67.21862929732895
474,59.8418493270874,67.23043169988978
475,59.967790603637695,67.26154712520926
476,60.094704389572144,67.29051665963651
477,60.22164607048035,67.28729782245303
478,60.34756112098694,67.32592386905817
479,60.47150897979736,67.33772627236448
480,60.5984320640564,67.36776875387811
481,60.725831270217896,67.3774252659055
482,60.85174107551575,67.40424891071301
483,60.97768306732178,67.42570782686464
484,61.10359764099121,67.4428749599917
485,61.23052716255188,67.4729174433683
486,61.354105949401855,67.48364690183917
487,61.48201370239258,67.52012706118319
488,61.60796141624451,67.528710628192
489,61.732885122299194,67.56840962622515
490,61.85981345176697,67.56733668031222
491,61.98574614524841,67.60810862516837
492,62.11265540122986,67.63922405743246
493,62.237597703933716,67.65209940888667
494,62.364532709121704,67.6810689500129
